timestamp,bvp
1774422769.0742488,27
1774422769.090907,26
1774422769.1075628,24
1774422769.12423,23
1774422769.140888,23
1774422769.1575532,22
1774422769.1742694,21
1774422769.190887,21
1774422769.2075348,20
1774422769.2242541,19
1774422769.240873,19
1774422769.2575588,18
1774422769.2742608,18
1774422769.2908726,17
1774422769.307922,17
1774422769.3248792,18
1774422769.3428814,22
1774422769.3580296,30
1774422769.3749912,39
1774422769.3917575,49
1774422769.4080822,61
1774422769.4245548,70
1774422769.4411275,77
1774422769.4583237,80
1774422769.4747777,80
1774422769.4912734,78
1774422769.508202,75
1774422769.524416,72
1774422769.5417397,70
1774422769.5588431,67
1774422769.5752,65
1774422769.5914493,62
1774422769.6076179,59
1774422769.6245103,56
1774422769.6415646,53
1774422769.6591766,51
1774422769.6755505,49
1774422769.6915078,47
1774422769.7082489,46
1774422769.7245796,45
1774422769.741547,44
1774422769.7583022,43
1774422769.7770128,41
1774422769.793012,40
1774422769.8093336,39
1774422769.8277812,37
1774422769.842984,35
1774422769.863404,33
1774422769.8795655,32
1774422769.8909936,30
1774422769.909841,29
1774422769.9322288,28
1774422769.941347,27
1774422769.958173,26
1774422769.9743009,25
1774422770.004864,24
1774422770.0183747,23
1774422770.036702,23
1774422770.0442705,22
1774422770.0606184,22
1774422770.0777013,21
1774422770.0921228,20
1774422770.1100388,20
1774422770.1265643,19
1774422770.1418033,19
1774422770.1633966,20
1774422770.1751952,25
1774422770.1921895,32
1774422770.2113767,41
1774422770.2266018,51
1774422770.24317,62
1774422770.25855,71
1774422770.275341,77
1774422770.2914891,78
1774422770.3083513,78
1774422770.3263917,75
1774422770.3418815,72
1774422770.3579328,69
1774422770.3743432,66
1774422770.39583,63
1774422770.4074976,61
1774422770.425641,58
1774422770.4444027,55
1774422770.46304,52
1774422770.4748514,50
1774422770.492269,48
1774422770.5077093,46
1774422770.525302,45
1774422770.5422366,44
1774422770.5575552,43
1774422770.5749238,42
1774422770.5914717,41
1774422770.6085198,40
1774422770.6259944,38
1774422770.6416018,36
1774422770.657586,34
1774422770.6751115,32
1774422770.6924174,31
1774422770.7078836,29
1774422770.7247343,28
1774422770.7441318,26
1774422770.7658007,25
1774422770.7742667,24
1774422770.7919395,23
1774422770.8082142,22
1774422770.824674,22
1774422770.8454132,21
1774422770.8620825,20
1774422770.8775823,20
1774422770.89412,19
1774422770.910335,19
1774422770.925972,18
1774422770.9412758,18
1774422770.9600627,17
1774422770.9757757,17
1774422770.9976318,16
1774422771.0096235,16
1774422771.0313635,15
1774422771.0430515,15
1774422771.0592387,17
1774422771.0803216,22
1774422771.0941663,31
1774422771.1108184,40
1774422771.129994,52
1774422771.1425214,64
1774422771.159545,74
1774422771.1745238,80
1774422771.1935437,83
1774422771.2075472,83
1774422771.2260482,81
1774422771.2411518,78
1774422771.2583778,75
1774422771.2749963,73
1774422771.2991176,70
1774422771.3078928,67
1774422771.3358629,64
1774422771.3433616,61
1774422771.3616793,58
1774422771.3823268,55
1774422771.3935788,53
1774422771.4128156,50
1774422771.424277,49
1774422771.4437208,47
1774422771.4619699,46
1774422771.4773502,45
1774422771.4938607,44
1774422771.5076416,42
1774422771.526908,40
1774422771.5418456,39
1774422771.5605557,37
1774422771.5741608,35
1774422771.5926,33
1774422771.6079595,31
1774422771.6250489,30
1774422771.6408849,28
1774422771.6685681,27
1774422771.6748595,26
1774422771.6954494,24
1774422771.7090468,24
1774422771.725328,23
1774422771.7414315,22
1774422771.7583153,21
1774422771.77417,20
1774422771.7912467,20
1774422771.8087525,19
1774422771.8244436,19
1774422771.8414845,18
1774422771.8577504,17
1774422771.8777657,17
1774422771.8941033,16
1774422771.9075103,16
1774422771.928579,15
1774422771.9409096,15
1774422771.9577622,14
1774422771.9743237,14
1774422771.9917405,17
1774422772.0074522,22
1774422772.024515,31
1774422772.0415664,41
1774422772.0594301,53
1774422772.0760226,66
1774422772.0928693,76
1774422772.11629,81
1774422772.127167,84
1774422772.1444428,83
1774422772.1594658,81
1774422772.176107,78
1774422772.1941006,75
1774422772.2089763,72
1774422772.2272694,70
1774422772.242495,67
1774422772.2582264,64
1774422772.2743082,61
1774422772.2908044,58
1774422772.3097606,55
1774422772.33399,52
1774422772.3462725,50
1774422772.3603327,49
1774422772.3785756,48
1774422772.39571,46
1774422772.4089622,45
1774422772.4250443,44
1774422772.450357,42
1774422772.460436,40
1774422772.4808133,39
1774422772.4961567,37
1774422772.5088115,35
1774422772.52827,33
1774422772.5443058,31
1774422772.5575016,29
1774422772.5745006,28
1774422772.590983,26
1774422772.6081085,25
1774422772.6244102,24
1774422772.6475768,23
1774422772.6596448,22
1774422772.6791437,21
1774422772.6990058,20
1774422772.714232,20
1774422772.724322,19
1774422772.7440739,18
1774422772.7606895,18
1774422772.7762923,17
1774422772.797285,17
1774422772.8134565,16
1774422772.829423,16
1774422772.843762,15
1774422772.8649397,15
1774422772.880191,15
1774422772.8949773,18
1774422772.9097736,24
1774422772.9272032,34
1774422772.9422877,44
1774422772.9623516,56
1774422772.9759378,67
1774422773.0015762,76
1774422773.0083003,81
1774422773.0245292,82
1774422773.045569,81
1774422773.0692046,78
1774422773.0790033,75
1774422773.0993881,72
1774422773.1143317,69
1774422773.124464,66
1774422773.1423376,63
1774422773.1632392,61
1774422773.1743696,58
1774422773.192255,55
1774422773.2074046,53
1774422773.2272892,51
1774422773.2434149,49
1774422773.2593138,48
1774422773.2773726,47
1774422773.291451,46
1774422773.3076513,45
1774422773.3312023,44
1774422773.3420029,42
1774422773.3586547,40
1774422773.375795,39
1774422773.3917778,37
1774422773.408607,35
1774422773.4253879,33
1774422773.4416525,31
1774422773.4643295,29
1774422773.4793954,28
1774422773.4926763,27
1774422773.5104756,25
1774422773.5260923,25
1774422773.541619,24
1774422773.5603635,23
1774422773.5743067,22
1774422773.5910273,22
1774422773.6076267,21
1774422773.6261146,21
1774422773.6524308,20
1774422773.6645317,20
1774422773.680956,19
1774422773.6984673,19
1774422773.7142303,20
1774422773.725009,25
1774422773.7420094,32
1774422773.762303,41
1774422773.7786918,52
1774422773.7962942,63
1774422773.8095376,72
1774422773.824333,78
1774422773.84194,80
1774422773.8603845,80
1774422773.8769011,77
1774422773.8915403,74
1774422773.90866,71
1774422773.9246113,68
1774422773.9422867,65
1774422773.957283,63
1774422773.9755204,60
1774422773.9957104,57
1774422774.0073004,54
1774422774.0243206,52
1774422774.044244,49
1774422774.0634708,48
1774422774.076714,47
1774422774.0931175,46
1774422774.1093624,45
1774422774.1283514,44
1774422774.147411,42
1774422774.1586401,41
1774422774.1750405,40
1774422774.1932368,38
1774422774.209411,36
1774422774.2254305,34
1774422774.2448425,32
1774422774.2575529,30
1774422774.2776084,29
1774422774.2909956,27
1774422774.3097913,26
1774422774.3287308,25
1774422774.3435702,24
1774422774.3637028,23
1774422774.37417,23
1774422774.3907268,22
1774422774.4076147,21
1774422774.425903,21
1774422774.4448097,20
1774422774.4618433,20
1774422774.4743898,19
1774422774.4940555,19
1774422774.5101645,18
1774422774.5263646,18
1774422774.542106,21
1774422774.5581028,28
1774422774.574259,37
1774422774.591112,46
1774422774.6074808,58
1774422774.6243572,68
1774422774.6411736,76
1774422774.6615696,80
1774422774.6745014,81
1774422774.696576,79
1774422774.7103224,77
1774422774.7250118,74
1774422774.7423472,71
1774422774.7609372,69
1774422774.774288,66
1774422774.7929585,64
1774422774.807244,61
1774422774.8247397,58
1774422774.8407059,55
1774422774.86169,52
1774422774.8801503,50
1774422774.893489,48
1774422774.9136941,47
1774422774.9266758,45
1774422774.9433403,44
1774422774.9604554,43
1774422774.9759371,42
1774422774.9996595,40
1774422775.0134504,39
1774422775.024397,37
1774422775.0435343,35
1774422775.0576599,33
1774422775.0788538,31
1774422775.094728,29
1774422775.110913,28
1774422775.1266751,27
1774422775.1416829,26
1774422775.1598227,25
1774422775.174163,24
1774422775.1919832,23
1774422775.2073314,22
1774422775.2282796,22
1774422775.2406723,21
1774422775.2599282,21
1774422775.2760532,20
1774422775.297367,20
1774422775.3079796,19
1774422775.3284037,19
1774422775.3436308,18
1774422775.357933,18
1774422775.381782,20
1774422775.3922057,25
1774422775.4127674,33
1774422775.4263797,43
1774422775.4445508,54
1774422775.4579747,65
1774422775.4751194,74
1774422775.4996061,78
1774422775.508818,80
1774422775.5251021,79
1774422775.5406325,77
1774422775.5584242,74
1774422775.5742254,71
1774422775.59075,69
1774422775.6072335,66
1774422775.6261494,64
1774422775.6527576,61
1774422775.6639376,58
1774422775.6747549,55
1774422775.6928694,52
1774422775.7089496,50
1774422775.7248514,48
1774422775.7415771,46
1774422775.760739,45
1774422775.7803614,44
1774422775.794966,43
1774422775.8117027,42
1774422775.824298,40
1774422775.8435507,39
1774422775.8585274,37
1774422775.877257,35
1774422775.893024,33
1774422775.9077168,31
1774422775.9240766,29
1774422775.9442105,28
1774422775.9632251,26
1774422775.9744542,25
1774422775.993714,24
1774422776.0072126,23
1774422776.0290146,22
1774422776.0465252,22
1774422776.058743,21
1774422776.0738673,20
1774422776.0954316,20
1774422776.1074634,19
1774422776.1242497,19
1774422776.1447027,19
1774422776.1595955,18
1774422776.1767435,18
1774422776.1930256,17
1774422776.2085524,17
1774422776.2256138,17
1774422776.2441666,20
1774422776.2610393,26
1774422776.27492,35
1774422776.291242,45
1774422776.3101947,57
1774422776.3251884,68
1774422776.3423529,75
1774422776.357233,79
1774422776.3750975,80
1774422776.3913212,78
1774422776.4088414,75
1774422776.4276812,72
1774422776.4405007,69
1774422776.4589953,66
1774422776.47654,63
1774422776.4910827,60
1774422776.5097404,57
1774422776.5257654,55
1774422776.540924,52
1774422776.5578222,50
1774422776.5742536,48
1774422776.5910418,47
1774422776.607407,46
1774422776.624878,45
1774422776.6446495,44
1774422776.6578774,43
1774422776.6805506,41
1774422776.696484,40
1774422776.7100801,38
1774422776.7322612,36
1774422776.7419713,34
1774422776.7581906,32
1774422776.77496,30
1774422776.7951784,29
1774422776.8072371,27
1774422776.8248515,26
1774422776.8407319,25
1774422776.8574336,24
1774422776.874429,23
1774422776.8920434,22
1774422776.9085057,21
1774422776.925344,21
1774422776.9409587,20
1774422776.9576247,20
1774422776.974863,19
1774422776.990541,19
1774422777.007519,18
1774422777.0267138,18
1774422777.040989,17
1774422777.0592635,17
1774422777.0774097,18
1774422777.0958211,22
1774422777.1089835,29
1774422777.1263719,39
1774422777.1424117,49
1774422777.158134,61
1774422777.1754632,71
1774422777.1953237,78
1774422777.2071798,80
1774422777.2287397,80
1774422777.2413347,78
1774422777.2588637,75
1774422777.2742474,72
1774422777.290729,69
1774422777.3076515,66
1774422777.3344958,63
1774422777.3419485,60
1774422777.3583052,57
1774422777.374266,54
1774422777.3920732,52
1774422777.410165,49
1774422777.4284935,47
1774422777.4463356,46
1774422777.4572058,45
1774422777.478134,44
1774422777.4973624,43
1774422777.5083675,42
1774422777.5247266,40
1774422777.5409482,39
1774422777.5571616,37
1774422777.5740662,35
1774422777.591851,33
1774422777.6071677,31
1774422777.624762,29
1774422777.6412067,28
1774422777.6576731,26
1774422777.6739922,25
1774422777.697872,24
1774422777.7092173,23
1774422777.7248256,22
1774422777.7469966,21
1774422777.7589068,21
1774422777.774845,20
1774422777.7932713,20
1774422777.8086624,19
1774422777.824263,18
1774422777.8425803,18
1774422777.8585877,17
1774422777.8745584,17
1774422777.8936033,16
1774422777.9092011,16
1774422777.9246912,16
1774422777.9410117,19
1774422777.959857,25
1774422777.974625,34
1774422777.9930599,44
1774422778.0070894,56
1774422778.0245364,68
1774422778.0430756,76
1774422778.0598013,81
1774422778.0784287,82
1774422778.0913208,81
1774422778.1072652,79
1774422778.1266754,76
1774422778.1407514,73
1774422778.1624484,70
1774422778.177359,68
1774422778.190882,65
1774422778.207717,62
1774422778.225316,59
1774422778.2414415,56
1774422778.258097,53
1774422778.273965,51
1774422778.2906752,48
1774422778.310876,47
1774422778.325669,46
1774422778.341572,44
1774422778.3571148,43
1774422778.3741813,42
1774422778.391059,40
1774422778.407062,39
1774422778.4253821,37
1774422778.440907,35
1774422778.4576705,33
1774422778.4737236,31
1774422778.4918556,29
1774422778.5071397,28
1774422778.5278637,26
1774422778.5417588,25
1774422778.5583751,24
1774422778.574351,23
1774422778.5908988,22
1774422778.6076572,21
1774422778.6245644,21
1774422778.645558,20
1774422778.6572752,20
1774422778.6740508,19
1774422778.6914732,19
1774422778.7094674,18
1774422778.7268138,17
1774422778.7415826,17
1774422778.7588758,16
1774422778.7746484,16
1774422778.7933795,15
1774422778.8070924,15
1774422778.8309195,15
1774422778.8404603,16
1774422778.8631604,22
1774422778.8789265,30
1774422778.8951142,40
1774422778.9075272,52
1774422778.9255478,65
1774422778.944988,75
1774422778.958646,80
1774422778.9743397,83
1774422778.9914021,82
1774422779.0145807,80
1774422779.0238745,78
1774422779.0406034,75
1774422779.0578246,72
1774422779.0766592,70
1774422779.0931938,67
1774422779.108341,64
1774422779.1253831,61
1774422779.140346,58
1774422779.162589,55
1774422779.173971,52
1774422779.1916268,50
1774422779.2073185,48
1774422779.224822,46
1774422779.2435195,45
1774422779.2596078,44
1774422779.2769725,43
1774422779.2930799,41
1774422779.3074937,40
1774422779.324937,38
1774422779.340449,36
1774422779.3573575,34
1774422779.3776224,32
1774422779.3930035,30
1774422779.4121387,28
1774422779.4327185,27
1774422779.44527,25
1774422779.4593606,24
1774422779.4780982,23
1774422779.495731,22
1774422779.5085714,21
1774422779.5239053,21
1774422779.5426369,20
1774422779.5614483,19
1774422779.5738268,19
1774422779.5910408,18
1774422779.607328,18
1774422779.623892,17
1774422779.6427407,16
1774422779.6597805,16
1774422779.6745205,15
1774422779.692893,15
1774422779.7127142,14
1774422779.7258804,14
1774422779.7416036,13
1774422779.761776,13
1774422779.77391,14
1774422779.7980142,19
1774422779.808823,27
1774422779.8239586,38
1774422779.8405216,49
1774422779.860343,61
1774422779.8775175,72
1774422779.8903756,79
1774422779.9098392,82
1774422779.9257073,82
1774422779.9460921,80
1774422779.9627604,77
1774422779.976502,74
1774422779.9905975,71
1774422780.008174,68
1774422780.024153,65
1774422780.0404382,62
1774422780.05784,59
1774422780.0755298,56
1774422780.093618,53
1774422780.1097684,51
1774422780.127626,49
1774422780.1484737,47
1774422780.161337,46
1774422780.1739767,45
1774422780.193252,44
1774422780.2150173,43
1774422780.2272427,42
1774422780.2407682,40
1774422780.2610416,39
1774422780.2738178,36
1774422780.2947917,34
1774422780.3078737,32
1774422780.3263335,30
1774422780.3431234,29
1774422780.359127,27
1774422780.3741095,26
1774422780.3909698,25
1774422780.4070868,24
1774422780.4242492,23
1774422780.4428654,22
1774422780.4576535,22
1774422780.4746954,21
1774422780.4939053,20
1774422780.509008,19
1774422780.5257757,19
1774422780.5408013,18
1774422780.5658593,18
1774422780.5738285,17
1774422780.590656,16
1774422780.6083126,16
1774422780.6241117,17
1774422780.6439364,21
1774422780.6586814,28
1774422780.6741436,38
1774422780.6903455,48
1774422780.7112138,60
1774422780.7299664,70
1774422780.741535,76
1774422780.7576113,78
1774422780.77475,78
1774422780.793953,75
1774422780.8069785,71
1774422780.8248,68
1774422780.8416317,64
1774422780.8574913,60
1774422780.881379,57
1774422780.8973916,54
1774422780.9129272,51
1774422780.9251027,49
1774422780.9414015,47
1774422780.9584224,45
1774422780.9739,44
1774422780.9931602,44
1774422781.0080867,43
1774422781.0259612,43
1774422781.0404184,42
1774422781.0573876,41
1774422781.074322,40
1774422781.0903742,38
1774422781.1095166,36
1774422781.12457,34
1774422781.1417022,32
1774422781.1604037,30
1774422781.1774726,28
1774422781.1914005,26
1774422781.2076085,25
1774422781.2258399,23
1774422781.2454329,22
1774422781.261592,22
1774422781.2790596,21
1774422781.2927785,20
1774422781.3078637,20
1774422781.329064,19
1774422781.3428166,19
1774422781.3590612,18
1774422781.3748965,18
1774422781.3913198,17
1774422781.408213,17
1774422781.4235907,19
1774422781.4407885,24
1774422781.4608126,32
1774422781.4755464,41
1774422781.492353,53
1774422781.507991,65
1774422781.523994,74
1774422781.5418012,80
1774422781.561255,82
1774422781.5742228,82
1774422781.591037,80
1774422781.6068926,76
1774422781.6264796,73
1774422781.6405983,70
1774422781.6576104,68
1774422781.6833587,65
1774422781.6903403,62
1774422781.70717,59
1774422781.725824,56
1774422781.7405207,53
1774422781.7585213,50
1774422781.7804408,48
1774422781.7921698,47
1774422781.8141592,46
1774422781.8264546,45
1774422781.8453412,44
1774422781.8571637,42
1774422781.875729,41
1774422781.8996556,40
1774422781.9106486,38
1774422781.9242349,36
1774422781.9408748,33
1774422781.957588,31
1774422781.9739702,29
1774422781.9912286,28
1774422782.008046,26
1774422782.0240536,25
1774422782.0430608,24
1774422782.0574684,23
1774422782.0750897,22
1774422782.0910783,22
1774422782.107936,21
1774422782.1237028,21
1774422782.1419199,20
1774422782.160127,20
1774422782.176386,19
1774422782.1906538,19
1774422782.2093086,18
1774422782.2287233,18
1774422782.2458735,21
1774422782.2639785,27
1774422782.2755086,36
1774422782.2910593,46
1774422782.3091261,57
1774422782.3272357,68
1774422782.3416784,76
1774422782.363429,81
1774422782.374165,82
1774422782.3944402,81
1774422782.4094899,79
1774422782.4237604,76
1774422782.4431734,74
1774422782.4577692,72
1774422782.4735394,69
1774422782.4910011,67
1774422782.509896,64
1774422782.5328474,60
1774422782.541491,57
1774422782.558764,54
1774422782.5741906,51
1774422782.5905604,49
1774422782.6073644,47
1774422782.6279652,46
1774422782.6438017,45
1774422782.6594806,44
1774422782.6797278,42
1774422782.6920943,41
1774422782.7081523,40
1774422782.7249413,38
1774422782.7434983,36
1774422782.7571073,34
1774422782.7748175,32
1774422782.7919638,30
1774422782.8069353,29
1774422782.8242102,27
1774422782.845855,26
1774422782.8632255,25
1774422782.8778636,24
1774422782.8954458,24
1774422782.9119081,23
1774422782.9275575,23
1774422782.9421024,22
1774422782.9652574,22
1774422782.9737442,21
1774422782.9918795,21
1774422783.0074139,20
1774422783.0251884,19
1774422783.0453565,19
1774422783.0591402,20
1774422783.0775268,25
1774422783.0924015,32
1774422783.1106272,40
1774422783.1242657,51
1774422783.1404924,62
1774422783.1576235,71
1774422783.1741383,76
1774422783.1924877,78
1774422783.2067804,77
1774422783.2265089,76
1774422783.240109,73
1774422783.2645445,71
1774422783.2800431,69
1774422783.2923043,67
1774422783.3097582,65
1774422783.3294582,62
1774422783.3441648,59
1774422783.3579566,55
1774422783.3749917,52
1774422783.3917682,49
1774422783.409809,47
1774422783.4246135,46
1774422783.4419434,44
1774422783.4571157,43
1774422783.4745119,42
1774422783.4904692,41
1774422783.5095608,40
1774422783.5291288,39
1774422783.548682,37
1774422783.5580134,35
1774422783.5742579,33
1774422783.5916803,31
1774422783.6068015,30
1774422783.6296773,28
1774422783.648534,27
1774422783.6642048,26
1774422783.6747413,25
1774422783.6932316,24
1774422783.7070377,23
1774422783.7260063,22
1774422783.7465162,22
1774422783.7635655,21
1774422783.7752514,21
1774422783.7932417,20
1774422783.8075228,20
1774422783.8290358,19
1774422783.8411963,19
1774422783.8583117,18
1774422783.8755019,18
1774422783.8923962,17
1774422783.9105554,16
1774422783.9292996,18
1774422783.9427614,23
1774422783.960363,31
1774422783.9754837,40
1774422783.9920237,51
1774422784.0067425,62
1774422784.0261507,71
1774422784.0400445,77
1774422784.0602973,78
1774422784.0819607,78
1774422784.0942264,76
1774422784.1074119,73
1774422784.1264296,70
1774422784.1425192,68
1774422784.1573887,65
1774422784.1739836,63
1774422784.1965234,60
1774422784.2128394,57
1774422784.22708,54
1774422784.2440548,51
1774422784.2596402,48
1774422784.274569,46
1774422784.291064,45
1774422784.3109493,44
1774422784.327096,43
1774422784.3421433,42
1774422784.3599057,40
1774422784.3741271,40
1774422784.392595,38
1774422784.4112763,36
1774422784.4246116,34
1774422784.44007,32
1774422784.4610343,30
1774422784.476061,29
1774422784.4915538,27
1774422784.5074408,26
1774422784.5272555,25
1774422784.5414379,24
1774422784.5594409,23
1774422784.5748625,23
1774422784.5918932,22
1774422784.6089215,22
1774422784.62378,21
1774422784.6466877,21
1774422784.6631198,20
1774422784.6784291,20
1774422784.6968548,19
1774422784.7096128,19
1774422784.7253861,18
1774422784.7443604,18
1774422784.7602487,17
1774422784.7745814,17
1774422784.7928064,20
1774422784.8067095,27
1774422784.8284953,36
1774422784.8416164,45
1774422784.8635557,56
1774422784.8785965,67
1774422784.8967543,73
1774422784.9085834,76
1774422784.9305136,76
1774422784.9405124,74
1774422784.9581857,71
1774422784.9823837,67
1774422784.990897,64
1774422785.0147789,61
1774422785.0237386,58
1774422785.042115,55
1774422785.060408,53
1774422785.074673,50
1774422785.0955663,48
1774422785.107907,46
1774422785.1261919,45
1774422785.1421847,44
1774422785.1570294,43
1774422785.1745572,43
1774422785.1909866,42
1774422785.20672,41
1774422785.2257645,40
1774422785.241223,38
1774422785.2595558,36
1774422785.2832475,34
1774422785.294981,32
1774422785.3150907,30
1774422785.3325174,29
1774422785.34705,27
1774422785.3583736,26
1774422785.3767292,25
1774422785.3969638,24
1774422785.407607,23
1774422785.4274752,22
1774422785.4466155,22
1774422785.4635851,21
1774422785.4744415,21
1774422785.4924579,20
1774422785.508227,20
1774422785.5237756,19
1774422785.5421422,19
1774422785.5601132,18
1774422785.5742047,19
1774422785.5912168,24
1774422785.6066775,31
1774422785.6242301,40
1774422785.6412225,50
1774422785.6592572,61
1774422785.6780953,70
1774422785.6958065,75
1774422785.7115939,77
1774422785.7261841,75
1774422785.7434816,72
1774422785.7598066,69
1774422785.7745392,65
1774422785.7931693,62
1774422785.8071918,59
1774422785.8238332,56
1774422785.8454883,53
1774422785.857868,50
1774422785.8738766,48
1774422785.8919606,45
1774422785.909434,44
1774422785.9239628,43
1774422785.9451942,42
1774422785.9570303,42
1774422785.9741604,41
1774422785.9913597,40
1774422786.0081656,40
1774422786.025532,38
1774422786.0435994,36
1774422786.061122,34
1774422786.0769725,32
1774422786.0903928,30
1774422786.107317,28
1774422786.1253827,26
1774422786.1412108,25
1774422786.157349,23
1774422786.178469,22
1774422786.195378,22
1774422786.2090461,21
1774422786.2267234,20
1774422786.246589,20
1774422786.2622876,19
1774422786.276071,19
1774422786.2934847,18
1774422786.308959,18
1774422786.3246331,17
1774422786.341932,18
1774422786.3610911,21
1774422786.3748622,28
1774422786.3939583,37
1774422786.4066715,47
1774422786.4282744,59
1774422786.4420342,70
1774422786.45888,77
1774422786.4743505,80
1774422786.4920204,80
1774422786.5086813,78
1774422786.532185,75
1774422786.5434687,72
1774422786.5579064,69
1774422786.5745144,67
1774422786.590032,64
1774422786.6078696,61
1774422786.630775,58
1774422786.646968,55
1774422786.665899,52
1774422786.678996,49
1774422786.6943185,46
1774422786.707768,44
1774422786.727948,43
1774422786.7441692,42
1774422786.7571979,41
1774422786.7758136,40
1774422786.7904525,39
1774422786.8066182,38
1774422786.8275318,36
1774422786.8402328,33
1774422786.8571131,31
1774422786.8746495,29
1774422786.8917267,27
1774422786.9142356,26
1774422786.9285161,24
1774422786.939908,23
1774422786.9631047,21
1774422786.974419,20
1774422786.9914908,20
1774422787.012315,19
1774422787.0244336,18
1774422787.0446723,18
1774422787.0587895,17
1774422787.0768073,17
1774422787.0904236,16
1774422787.1088336,16
1774422787.1257093,15
1774422787.1410036,14
1774422787.1586204,14
1774422787.1744535,17
1774422787.1915107,23
1774422787.2171717,32
1774422787.22668,42
1774422787.240633,55
1774422787.2645202,66
1774422787.273696,75
1774422787.290896,80
1774422787.3096745,81
1774422787.3266013,80
1774422787.3442419,77
1774422787.3640735,75
1774422787.3775818,72
1774422787.3928566,70
1774422787.4086654,67
1774422787.4295824,65
1774422787.4410489,62
1774422787.45679,58
1774422787.4783592,55
1774422787.4976141,51
1774422787.507649,48
1774422787.5234408,46
1774422787.5425863,44
1774422787.5593004,42
1774422787.5733955,41
1774422787.5899308,40
1774422787.6068435,40
1774422787.6248264,38
1774422787.6472025,37
1774422787.6593196,34
1774422787.6775267,32
1774422787.6946898,30
1774422787.7076495,28
1774422787.7270412,26
1774422787.7419581,24
1774422787.7587173,23
1774422787.7759418,21
1774422787.7927444,20
1774422787.8071866,19
1774422787.8250434,18
1774422787.8475225,18
1774422787.8582742,17
1774422787.8760293,16
1774422787.89537,16
1774422787.9089646,15
1774422787.9260397,14
1774422787.9419634,14
1774422787.9595578,13
1774422787.974059,13
1774422787.9943533,12
1774422788.0145671,11
1774422788.0281305,11
1774422788.0462923,12
1774422788.0608258,16
1774422788.0763745,24
1774422788.0911057,35
1774422788.10983,47
1774422788.1285594,60
1774422788.1420927,71
1774422788.1582606,78
1774422788.1747177,81
1774422788.190432,81
1774422788.2123618,79
1774422788.229569,77
1774422788.2467027,74
1774422788.260065,71
1774422788.2791262,69
1774422788.2945845,67
1774422788.3154533,64
1774422788.3327625,60
1774422788.3445127,57
1774422788.3618612,53
1774422788.3744102,50
1774422788.392874,47
1774422788.4064934,45
1774422788.4274929,44
1774422788.4398441,42
1774422788.457053,41
1774422788.4749207,40
1774422788.4919853,39
1774422788.5067406,38
1774422788.5281203,36
1774422788.5406282,34
1774422788.5662336,31
1774422788.5733857,29
1774422788.590293,27
1774422788.6069527,25
1774422788.6243875,24
1774422788.643192,22
1774422788.6593745,21
1774422788.6778884,20
1774422788.6928647,19
1774422788.7095163,18
1774422788.7281625,17
1774422788.7448785,16
1774422788.759019,16
1774422788.7746978,15
1774422788.7928503,14
1774422788.8065555,14
1774422788.8260233,13
1774422788.8401854,12
1774422788.8651218,12
1774422788.8871517,11
1774422788.9023507,10
1774422788.912192,10
1774422788.9334478,9
1774422788.9431937,9
1774422788.9656,8
1774422788.9758003,9
1774422788.9970233,15
1774422789.0078828,24
1774422789.0263848,35
1774422789.0456276,48
1774422789.063594,62
1774422789.0771863,74
1774422789.0925856,82
1774422789.1095314,85
1774422789.1238039,85
1774422789.1414082,83
1774422789.1611512,80
1774422789.1754382,76
1774422789.19211,74
1774422789.206496,71
1774422789.2254286,68
1774422789.2484572,65
1774422789.264831,62
1774422789.2731733,58
1774422789.2954104,55
1774422789.3118236,51
1774422789.3309944,49
1774422789.3417926,47
1774422789.3620749,45
1774422789.3797176,44
1774422789.3910472,43
1774422789.4167175,42
1774422789.4264314,40
1774422789.4427211,39
1774422789.4601877,37
1774422789.4749374,35
1774422789.4903784,33
1774422789.509547,30
1774422789.5251348,28
1774422789.5424912,26
1774422789.5609498,25
1774422789.574025,23
1774422789.593097,22
1774422789.60645,20
1774422789.6292531,19
1774422789.641036,19
1774422789.6605847,18
1774422789.673253,17
1774422789.6951003,16
1774422789.711413,16
1774422789.7241526,15
1774422789.7424297,14
1774422789.7580009,13
1774422789.7742229,13
1774422789.7913606,12
1774422789.8071237,11
1774422789.8249874,11
1774422789.8416026,10
1774422789.860605,9
1774422789.8767092,9
1774422789.8967257,8
1774422789.9098954,8
1774422789.928091,12
1774422789.942695,19
1774422789.95733,31
1774422789.973721,43
1774422789.9932957,57
1774422790.0078778,71
1774422790.0251606,81
1774422790.0447938,86
1774422790.0598161,87
1774422790.0798233,85
1774422790.0899112,82
1774422790.1092584,79
1774422790.1253517,75
1774422790.1404557,72
1774422790.160981,69
1774422790.1734521,66
1774422790.1931162,62
1774422790.2094467,59
1774422790.2237368,56
1774422790.2406626,52
1774422790.2566416,50
1774422790.280657,48
1774422790.2940342,47
1774422790.3093834,45
1774422790.3277578,44
1774422790.341565,43
1774422790.3651316,42
1774422790.3736258,40
1774422790.3922594,39
1774422790.4064045,36
1774422790.4246774,34
1774422790.4396977,32
1774422790.4582603,29
1774422790.4737194,27
1774422790.493663,25
1774422790.5073624,23
1774422790.5270534,22
1774422790.543662,20
1774422790.55659,19
1774422790.5738587,18
1774422790.5901196,17
1774422790.6081028,16
1774422790.6316106,16
1774422790.6422412,15
1774422790.6629806,14
1774422790.6784012,14
1774422790.6929677,13
1774422790.7106035,12
1774422790.7264874,12
1774422790.7399628,11
1774422790.7590172,11
1774422790.7739446,10
1774422790.7905157,10
1774422790.8063533,11
1774422790.8257349,17
1774422790.840043,27
1774422790.8626904,39
1774422790.8853197,51
1774422790.890343,65
1774422790.9077487,77
1774422790.929919,83
1774422790.94125,85
1774422790.960035,84
1774422790.9730134,81
1774422790.9904583,77
1774422791.007209,73
1774422791.024979,69
1774422791.0404172,65
1774422791.0605297,62
1774422791.0740836,59
1774422791.0900352,56
1774422791.1068563,53
1774422791.1244848,50
1774422791.1408243,48
1774422791.1575701,47
1774422791.174078,46
1774422791.1917098,45
1774422791.206334,44
1774422791.2245452,43
1774422791.2431128,42
1774422791.2577147,40
1774422791.276599,39
1774422791.2939923,36
1774422791.3085368,34
1774422791.3266435,31
1774422791.3453429,29
1774422791.362523,27
1774422791.3746545,25
1774422791.393762,23
1774422791.4071136,22
1774422791.4274445,21
1774422791.4423974,19
1774422791.458297,18
1774422791.4742415,18
1774422791.4901583,17
1774422791.509114,16
1774422791.5278172,15
1774422791.5420892,15
1774422791.5611722,14
1774422791.5731869,14
1774422791.5901613,13
1774422791.6063015,13
1774422791.626916,14
1774422791.6396668,19
1774422791.6626697,27
1774422791.6831338,38
1774422791.6940815,50
1774422791.706339,64
1774422791.726538,75
1774422791.7418144,83
1774422791.7603548,86
1774422791.7751398,86
1774422791.7921743,83
1774422791.807589,80
1774422791.8265207,76
1774422791.8411713,73
1774422791.8564932,70
1774422791.8787735,67
1774422791.8899472,63
1774422791.9065738,60
1774422791.9248848,57
1774422791.9462175,54
1774422791.9647822,51
1774422791.9741635,49
1774422791.998641,47
1774422792.0062943,46
1774422792.0237505,45
1774422792.0407934,44
1774422792.0566285,43
1774422792.0760524,41
1774422792.0911639,40
1774422792.1091917,38
1774422792.1257126,36
1774422792.1430588,33
1774422792.1639862,31
1774422792.174779,29
1774422792.190845,27
1774422792.2148433,25
1774422792.2251484,23
1774422792.2464454,22
1774422792.2659366,21
1774422792.277484,20
1774422792.2980845,19
1774422792.3121824,18
1774422792.3312466,18
1774422792.3413963,17
1774422792.3568003,17
1774422792.3742993,16
1774422792.3909233,15
1774422792.4062424,15
1774422792.4263244,14
1774422792.4448702,15
1774422792.4592047,20
1774422792.4729233,28
1774422792.4913568,39
1774422792.5104654,51
1774422792.5238125,63
1774422792.5423186,75
1774422792.5609596,82
1774422792.5739787,85
1774422792.592095,84
1774422792.6070826,82
1774422792.629435,79
1774422792.649201,76
1774422792.665548,73
1774422792.6776607,70
1774422792.6974912,67
1774422792.7068374,64
1774422792.7250319,61
1774422792.744357,58
1774422792.7607238,55
1774422792.7736325,52
1774422792.7906883,50
1774422792.8062885,48
1774422792.824945,46
1774422792.8396854,45
1774422792.860589,44
1774422792.8769584,43
1774422792.8931353,41
1774422792.9079268,40
1774422792.9262514,38
1774422792.9428525,36
1774422792.9597256,34
1774422792.9758587,31
1774422792.9957469,29
1774422793.0138078,28
1774422793.024845,26
1774422793.0458496,24
1774422793.06385,23
1774422793.0778282,22
1774422793.0929933,21
1774422793.1074634,20
1774422793.126538,20
1774422793.1401596,19
1774422793.1579866,18
1774422793.1731277,18
1774422793.202283,17
1774422793.2122798,17
1774422793.2316186,16
1774422793.239637,16
1774422793.2610333,18
1774422793.2801192,24
1774422793.29002,33
1774422793.3062737,43
1774422793.3249514,55
1774422793.3454642,67
1774422793.3576162,75
1774422793.3748643,80
1774422793.3917634,81
1774422793.4089253,80
1774422793.4251919,77
1774422793.4486542,73
1774422793.4567344,70
1774422793.4749014,67
1774422793.50315,65
1774422793.507627,62
1774422793.5315814,59
1774422793.544183,56
1774422793.5602696,53
1774422793.5729842,50
1774422793.5903568,48
1774422793.6062272,46
1774422793.6243937,45
1774422793.6423783,44
1774422793.658598,43
1774422793.6743941,42
1774422793.6920211,41
1774422793.7083282,40
1774422793.729307,38
1774422793.7413158,36
1774422793.7570205,34
1774422793.7738528,32
1774422793.7935455,30
1774422793.8113751,28
1774422793.8290305,26
1774422793.8438835,25
1774422793.861256,23
1774422793.8774295,22
1774422793.8934283,21
1774422793.9086754,21
1774422793.9248905,20
1774422793.9417284,19
1774422793.958254,19
1774422793.9735372,18
1774422793.9948921,18
1774422794.0068557,17
1774422794.0260344,17
1774422794.03948,18
1774422794.0578,21
1774422794.0755718,29
1774422794.0986016,38
1774422794.1111174,48
1774422794.127227,60
1774422794.1405516,70
1774422794.1671357,77
1774422794.1783829,79
1774422794.2010665,78
1774422794.2081075,76
1774422794.2261584,72
1774422794.2400732,68
1774422794.2631173,65
1774422794.2763407,62
1774422794.3006694,59
1774422794.3097682,56
1774422794.33062,53
1774422794.3417373,50
1774422794.3599002,48
1774422794.3760521,46
1774422794.391961,45
1774422794.40818,44
1774422794.4257326,44
1774422794.4445357,43
1774422794.4700882,42
1774422794.4730089,41
1774422794.4919984,40
1774422794.5126624,38
1774422794.5244188,36
1774422794.5538692,34
1774422794.5610614,31
1774422794.572903,29
1774422794.5908406,28
1774422794.607232,26
1774422794.626721,25
1774422794.6397924,23
1774422794.660065,22
1774422794.6780012,22
1774422794.6939855,21
1774422794.708415,20
1774422794.7234573,20
1774422794.7413802,20
1774422794.7564263,19
1774422794.773562,19
1774422794.792457,18
1774422794.8061156,18
1774422794.8285153,22
1774422794.8394473,28
1774422794.8576903,37
1774422794.875972,47
1774422794.8922274,59
1774422794.908858,70
1774422794.9234302,77
1774422794.9469728,80
1774422794.96309,80
1774422794.9792316,78
1774422794.997419,75
1774422795.0109663,71
1774422795.0259767,68
1774422795.0421853,65
1774422795.0693774,62
1774422795.074112,59
1774422795.089886,56
1774422795.110341,53
1774422795.1243165,50
1774422795.143111,48
1774422795.1613705,46
1774422795.1747508,45
1774422795.1945863,44
1774422795.2061195,43
1774422795.2276602,42
1774422795.2394896,41
1774422795.2584708,40
1774422795.2773278,39
1774422795.2952948,36
1774422795.3070438,34
1774422795.3273828,32
1774422795.3453302,30
1774422795.3595839,28
1774422795.3734236,26
1774422795.3914237,25
1774422795.4069762,24
1774422795.4233246,23
1774422795.448267,22
1774422795.4628427,21
1774422795.4737039,20
1774422795.493909,20
1774422795.5113964,19
1774422795.528576,19
1774422795.5413318,18
1774422795.5598505,18
1774422795.5731444,17
1774422795.5942633,17
1774422795.6061084,16
1774422795.626517,16
1774422795.6437578,15
1774422795.6594486,16
1774422795.6727414,20
1774422795.6928627,29
1774422795.7068744,39
1774422795.7256656,50
1774422795.7433093,63
1774422795.7572637,74
1774422795.7764182,81
1774422795.793754,84
1774422795.8069737,83
1774422795.823177,81
1774422795.8435733,78
1774422795.8615594,75
1774422795.878265,73
1774422795.8924937,70
1774422795.9108324,67
1774422795.9250095,64
1774422795.9403365,61
1774422795.9612591,57
1774422795.9740634,54
1774422795.9940677,51
1774422796.0060892,49
1774422796.025066,47
1774422796.0418556,46
1774422796.060216,44
1774422796.0738442,43
1774422796.0900886,42
1774422796.1066906,41
1774422796.1272502,40
1774422796.1405437,38
1774422796.156144,35
1774422796.1837735,33
1774422796.1950445,31
1774422796.209399,29
1774422796.223635,27
1774422796.247204,26
1774422796.265151,25
1774422796.2741306,24
1774422796.2948842,23
1774422796.3124323,22
1774422796.3297296,21
1774422796.3419487,20
1774422796.3617563,19
1774422796.3764498,19
1774422796.3898182,18
1774422796.4060311,18
1774422796.4238825,17
1774422796.439365,17
1774422796.456921,16
1774422796.4730444,15
1774422796.4949079,15
1774422796.507164,14
1774422796.5265234,13
1774422796.5450065,13
1774422796.5647855,12
1774422796.5731976,11
1774422796.59006,13
1774422796.6070688,18
1774422796.6242502,27
1774422796.64515,39
1774422796.6633618,51
1774422796.6753805,64
1774422796.6936824,75
1774422796.7069376,82
1774422796.7269232,85
1774422796.7421227,85
1774422796.7637553,83
1774422796.7741194,80
1774422796.7899466,77
1774422796.8060412,74
1774422796.825113,72
1774422796.8440266,69
1774422796.859632,66
1774422796.8852277,63
1774422796.8929358,59
1774422796.9155257,56
1774422796.9292514,53
1774422796.9406257,50
1774422796.9579933,48
1774422796.9759061,47
1774422796.9911633,45
1774422797.0065117,44
1774422797.0282147,43
1774422797.0404446,41
1774422797.0603008,40
1774422797.0746346,38
1774422797.092271,36
1774422797.1081364,33
1774422797.1286604,31
1774422797.1429281,29
1774422797.1572094,27
1774422797.1762106,25
1774422797.1939428,24
1774422797.2060251,23
1774422797.2312074,21
1774422797.239352,20
1774422797.258805,20
1774422797.2823582,19
1774422797.2962887,18
1774422797.3149312,17
1774422797.326146,16
1774422797.3462706,16
1774422797.3723252,15
1774422797.3728406,14
1774422797.3943832,13
1774422797.4104323,13
1774422797.425471,12
1774422797.4405355,11
1774422797.4566529,10
1774422797.4730062,10
1774422797.489609,9
1774422797.5092323,9
1774422797.5292819,8
1774422797.5412698,7
1774422797.5584807,8
1774422797.573181,13
1774422797.5899997,22
1774422797.6059859,34
1774422797.624903,46
1774422797.642566,61
1774422797.6629732,73
1774422797.6780288,82
1774422797.6946776,85
1774422797.7059462,85
1774422797.7247481,83
1774422797.7401204,80
1774422797.7574167,76
1774422797.7737422,73
1774422797.790955,70
1774422797.8071063,67
1774422797.8243427,64
1774422797.8394082,61
1774422797.8617268,57
1774422797.8758795,54
1774422797.8929753,52
1774422797.9060445,49
1774422797.9244442,48
1774422797.9433448,47
1774422797.9561346,46
1774422797.974489,45
1774422797.9902797,44
1774422798.0059662,43
1774422798.023295,41
1774422798.0393043,40
1774422798.0598214,37
1774422798.073955,35
1774422798.0925114,32
1774422798.1084723,30
1774422798.1244652,28
1774422798.1405253,26
1774422798.1574667,25
1774422798.177373,23
1774422798.1959124,22
1774422798.207077,21
1774422798.223332,20
1774422798.2467885,19
1774422798.2567916,18
1774422798.2736123,18
1774422798.292382,17
1774422798.3097827,17
1774422798.32783,16
1774422798.3416202,15
1774422798.3586009,15
1774422798.374009,14
1774422798.3902504,13
1774422798.406398,12
1774422798.4280038,12
1774422798.440348,16
1774422798.4574084,23
1774422798.4726126,33
1774422798.4894583,45
1774422798.5080185,58
1774422798.5266309,70
1774422798.5450358,79
1774422798.5616257,83
1774422798.572949,83
1774422798.5906053,81
1774422798.6065576,78
1774422798.6266105,74
1774422798.6401463,70
1774422798.6589355,67
1774422798.6742947,63
1774422798.6909568,60
1774422798.709431,57
1774422798.723332,54
1774422798.7410276,51
1774422798.7574432,49
1774422798.7731164,47
1774422798.7893662,46
1774422798.8058903,45
1774422798.8233914,44
1774422798.8506088,43
1774422798.858465,42
1774422798.8772688,41
1774422798.8952746,40
1774422798.9070756,37
1774422798.9305913,35
1774422798.9432263,33
1774422798.9617743,30
1774422798.9737642,28
1774422798.9931543,26
1774422799.008409,24
1774422799.0262477,23
1774422799.043826,21
1774422799.057369,20
1774422799.0750034,19
1774422799.0922058,18
1774422799.1063058,17
1774422799.1229987,17
1774422799.1418116,16
1774422799.1621618,15
1774422799.173162,15
1774422799.1917467,15
1774422799.2067537,14
1774422799.224903,14
1774422799.2392073,13
1774422799.2613618,13
1774422799.275964,17
1774422799.2941058,24
1774422799.3065526,34
1774422799.3239818,45
1774422799.3424911,58
1774422799.361278,71
1774422799.3741446,80
1774422799.3923576,84
1774422799.4079676,85
1774422799.4247494,83
1774422799.4407818,81
1774422799.459125,77
1774422799.4729114,74
1774422799.49131,71
1774422799.509554,69
1774422799.5299861,66
1774422799.5417676,63
1774422799.5594263,60
1774422799.5735106,56
1774422799.590115,53
1774422799.60586,50
1774422799.6243615,48
1774422799.6392038,46
1774422799.6560967,45
1774422799.6773176,44
1774422799.6936593,43
1774422799.7073088,41
1774422799.7266216,40
1774422799.7436907,39
1774422799.7591832,36
1774422799.7789717,34
1774422799.7924604,32
1774422799.8081605,30
1774422799.8304365,27
1774422799.8395312,26
1774422799.8626711,24
1774422799.873412,23
1774422799.8935578,21
1774422799.9073222,20
1774422799.9240234,19
1774422799.9402368,18
1774422799.960243,18
1774422799.9742935,17
1774422799.98976,16
1774422800.0058925,16
1774422800.0232048,15
1774422800.0391912,14
1774422800.0584626,14
1774422800.075805,13
1774422800.0902598,13
1774422800.1073198,12
1774422800.125803,12
1774422800.1440907,13
1774422800.1663027,19
1774422800.1731608,28
1774422800.1919837,39
1774422800.2188084,51
1774422800.228738,65
1774422800.2511365,76
1774422800.2577162,83
1774422800.2779672,86
1774422800.2935174,86
1774422800.3098428,84
1774422800.324096,81
1774422800.3403165,78
1774422800.3617792,75
1774422800.3740745,72
1774422800.390802,70
1774422800.409214,67
1774422800.4278545,64
1774422800.4391348,60
1774422800.4566972,57
1774422800.4743245,54
1774422800.496196,51
1774422800.5119824,49
1774422800.5324147,47
1774422800.546715,46
1774422800.5596027,45
1774422800.5728567,43
1774422800.589901,42
1774422800.6068347,40
1774422800.6241803,39
1774422800.646263,37
1774422800.656065,34
1774422800.6780944,32
1774422800.694193,30
1774422800.709708,28
1774422800.7249484,27
1774422800.7412498,25
1774422800.7582088,24
1774422800.77382,22
1774422800.7908077,21
1774422800.8058033,20
1774422800.8234322,20
1774422800.8424392,19
1774422800.8581216,18
1774422800.8779662,17
1774422800.8971012,17
1774422800.9079006,16
1774422800.925067,15
1774422800.9492152,15
1774422800.9599743,14
1774422800.9734335,14
1774422800.9895988,16
1774422801.0058074,22
1774422801.0288773,32
1774422801.0403018,42
1774422801.0613832,54
1774422801.0746043,66
1774422801.0915895,75
1774422801.109418,80
1774422801.1253319,81
1774422801.1414871,80
1774422801.1595328,78
1774422801.17253,75
1774422801.190101,72
1774422801.2058642,69
1774422801.2237222,66
1774422801.2392147,64
1774422801.2579286,60
1774422801.274452,57
1774422801.300652,54
1774422801.3073883,51
1774422801.3288941,48
1774422801.3414702,46
1774422801.361524,45
1774422801.3763206,44
1774422801.3909032,43
1774422801.4072082,42
1774422801.42301,40
1774422801.4406714,40
1774422801.4562993,38
1774422801.47457,36
1774422801.4905431,33
1774422801.5067604,31
1774422801.5264459,29
1774422801.5427237,27
1774422801.5573285,25
1774422801.572781,24
1774422801.5894413,23
1774422801.6057513,22
1774422801.624509,21
1774422801.639573,20
1774422801.6590142,19
1774422801.6724787,19
1774422801.6899884,18
1774422801.707384,18
1774422801.7277868,17
1774422801.7401485,17
1774422801.7600772,16
1774422801.7747319,16
1774422801.7935627,15
1774422801.8108282,17
1774422801.8272853,23
1774422801.8402634,31
1774422801.8619258,41
1774422801.8799264,52
1774422801.8916929,64
1774422801.9062064,73
1774422801.9275284,78
1774422801.9445386,80
1774422801.9576333,78
1774422801.9739203,76
1774422801.9900074,72
1774422802.0058863,69
1774422802.0238883,66
1774422802.0390859,63
1774422802.0584345,60
1774422802.0775673,57
1774422802.0934122,54
1774422802.1146486,51
1774422802.1247313,49
1774422802.1390767,47
1774422802.1706536,46
1774422802.172965,45
1774422802.1960316,45
1774422802.2062356,44
1774422802.227337,43
1774422802.2402112,41
1774422802.2668629,40
1774422802.2771351,38
1774422802.2908332,36
1774422802.310606,34
1774422802.3257143,32
1774422802.3430085,30
1774422802.3621292,28
1774422802.3736615,27
1774422802.3890913,26
1774422802.407978,25
1774422802.423392,24
1774422802.4398806,23
1774422802.458663,23
1774422802.474747,22
1774422802.4904673,22
1774422802.5065365,21
1774422802.5234008,21
1774422802.5396357,20
1774422802.5643826,21
1774422802.5730405,25
1774422802.591237,31
1774422802.607488,40
1774422802.6240835,50
1774422802.6446347,61
1774422802.6596894,70
1774422802.6774027,76
1774422802.6939297,78
1774422802.7070515,78
1774422802.7276132,76
1774422802.7429087,73
1774422802.761007,69
1774422802.7738695,67
1774422802.7899983,64
1774422802.8085856,61
1774422802.824489,58
1774422802.8422348,55
1774422802.8572328,53
1774422802.8727522,50
1774422802.889074,48
1774422802.9116898,46
1774422802.9236345,45
1774422802.944727,44
1774422802.960016,43
1774422802.9734888,42
1774422802.99446,41
1774422803.00662,40
1774422803.0240436,38
1774422803.0395002,36
1774422803.0601547,34
1774422803.0724735,32
1774422803.0895379,30
1774422803.1081176,28
1774422803.1273396,27
1774422803.1419003,26
1774422803.1568263,25
1774422803.1729028,24
1774422803.1904693,23
1774422803.205729,22
1774422803.223841,22
1774422803.239614,21
1774422803.2614784,21
1774422803.2738001,20
1774422803.2915416,20
1774422803.3182187,19
1774422803.32393,19
1774422803.339783,20
1774422803.3585737,25
1774422803.373878,33
1774422803.390922,41
1774422803.407019,52
1774422803.4249592,63
1774422803.4405363,73
1774422803.4576185,78
1774422803.4726985,80
1774422803.4897485,80
1774422803.506915,78
1774422803.525464,75
1774422803.5402474,73
1774422803.5583084,71
1774422803.5725284,68
1774422803.590646,66
1774422803.6058557,63
1774422803.630659,59
1774422803.6391957,56
1774422803.6558807,53
1774422803.6724727,50
1774422803.6928647,48
1774422803.7113616,46
1774422803.7298253,45
1774422803.7431803,44
1774422803.7588825,43
1774422803.7739673,41
1774422803.790992,40
1774422803.8073344,39
1774422803.8311708,37
1774422803.8492136,35
1774422803.8576858,33
1774422803.8842986,31
1774422803.8890324,29
1774422803.911916,28
1774422803.9268599,26
1774422803.939812,25
1774422803.9582632,24
1774422803.9740667,23
1774422803.990601,22
1774422804.0056212,22
1774422804.0223577,21
1774422804.0390942,21
1774422804.0576813,20
1774422804.0739021,20
1774422804.0903685,19
1774422804.106979,19
1774422804.1230772,18
1774422804.1407971,19
1774422804.15726,24
1774422804.1737397,31
1774422804.1937187,40
1774422804.2073245,50
1774422804.2254138,60
1774422804.2396133,69
1774422804.2587187,74
1774422804.2734284,76
1774422804.292918,76
1774422804.3085923,74
1774422804.3226507,71
1774422804.3459604,69
1774422804.361388,67
1774422804.3752582,64
1774422804.3910196,62
1774422804.4056437,59
1774422804.423393,56
1774422804.4419181,52
1774422804.4593205,49
1774422804.473534,47
1774422804.4908755,44
1774422804.5099852,43
1774422804.5307443,42
1774422804.5414462,41
1774422804.565742,40
1774422804.5727708,40
1774422804.5911763,38
1774422804.6063263,36
1774422804.6253545,34
1774422804.6409452,32
1774422804.6567667,30
1774422804.6745033,29
1774422804.6910436,27
1774422804.7115536,26
1774422804.7224236,24
1774422804.743615,23
1774422804.7566476,22
1774422804.773345,22
1774422804.7916842,21
1774422804.8057082,20
1774422804.8223403,20
1774422804.839779,19
1774422804.8562953,19
1774422804.8733542,19
1774422804.9030771,18
1774422804.9071264,18
1774422804.9236429,17
1774422804.9404461,17
1774422804.9676101,16
1774422804.9742386,17
1774422804.9996626,21
1774422805.0104246,28
1774422805.028088,38
1774422805.0398002,47
1774422805.0595648,58
1774422805.0783415,68
1774422805.0935867,74
1774422805.1058886,76
1774422805.1257384,75
1774422805.1433022,72
1774422805.1568873,69
1774422805.173513,66
1774422805.193162,63
1774422805.2060206,60
1774422805.2254539,57
1774422805.243902,54
1774422805.2592442,52
1774422805.2738118,49
1774422805.2992315,46
1774422805.3086188,45
1774422805.3272758,43
1774422805.3407867,43
1774422805.3595881,42
1774422805.3722658,41
1774422805.391592,40
1774422805.407554,40
1774422805.4291818,39
1774422805.4450774,37
1774422805.4613414,35
1774422805.475834,33
1774422805.489838,31
1774422805.5124166,29
1774422805.5243726,27
1774422805.540334,26
1774422805.5574653,24
1774422805.572309,23
1774422805.589259,22
1774422805.6057835,22
1774422805.630669,21
1774422805.6389184,20
1774422805.6563559,20
1774422805.6731162,19
1774422805.6909776,19
1774422805.70747,19
1774422805.7231743,18
1774422805.7393253,18
1774422805.7564125,17
1774422805.7733276,17
1774422805.790381,19
1774422805.810539,25
1774422805.8236768,34
1774422805.8413293,43
1774422805.8559122,54
1774422805.8735409,64
1774422805.8888938,71
1774422805.905659,75
1774422805.9253974,75
1774422805.9389548,74
1774422805.958742,71
1774422805.9740138,68
1774422805.9892185,66
1774422806.0055773,63
1774422806.0262985,60
1774422806.0388424,58
1774422806.0628583,55
1774422806.0741253,51
1774422806.0952275,48
1774422806.1061394,46
1774422806.1269512,44
1774422806.14296,42
1774422806.1559625,41
1774422806.1726835,41
1774422806.1904194,40
1774422806.2070937,40
1774422806.2275205,38
1774422806.2405667,36
1774422806.2614894,34
1774422806.2783902,32
1774422806.2892828,30
1774422806.3078053,28
1774422806.32647,27
1774422806.3449254,25
1774422806.358315,24
1774422806.3763058,22
1774422806.3904407,21
1774422806.4058118,20
1774422806.4236782,20
1774422806.4428766,19
1774422806.4609668,18
1774422806.4731932,18
1774422806.492476,17
1774422806.508176,17
1774422806.5286303,16
1774422806.5391037,16
1774422806.5557435,15
1774422806.572399,15
1774422806.5891142,14
1774422806.6063266,14
1774422806.6252964,15
1774422806.6393657,20
1774422806.6576402,28
1774422806.6740124,39
1774422806.6910548,49
1774422806.7056293,61
1774422806.7241497,70
1774422806.7411616,76
1774422806.756981,78
1774422806.7734838,77
1774422806.790833,76
1774422806.8056693,73
1774422806.8263516,71
1774422806.8420708,68
1774422806.8584182,66
1774422806.872266,63
1774422806.8899205,61
1774422806.9060876,57
1774422806.9248822,54
1774422806.9427786,51
1774422806.9586265,47
1774422806.9768512,45
1774422806.9982383,43
1774422807.0097694,42
1774422807.0224707,41
1774422807.0391736,40
1774422807.0573437,40
1774422807.0740685,38
1774422807.0906093,36
1774422807.1056418,34
1774422807.1258957,32
1774422807.1413486,30
1774422807.1578972,28
1774422807.173786,27
1774422807.189941,25
1774422807.205653,24
1774422807.2261024,22
1774422807.2411876,21
1774422807.2596178,20
1774422807.274961,19
1774422807.2913036,19
1774422807.3084068,18
1774422807.3233693,17
1774422807.338983,17
1774422807.3569489,16
1774422807.372275,15
1774422807.3929076,15
1774422807.4055493,14
1774422807.428802,13
1774422807.4391334,13
1774422807.457522,12
1774422807.4738374,12
1774422807.4918838,11
1774422807.5054853,11
1774422807.5222747,13
1774422807.538856,19
1774422807.5588338,28
1774422807.5723877,39
1774422807.589011,50
1774422807.6055365,62
1774422807.6228528,72
1774422807.6408737,77
1774422807.655842,79
1774422807.6750717,78
1774422807.6941261,76
1774422807.7073438,74
1774422807.7242222,71
1774422807.7428877,69
1774422807.7595463,66
1774422807.7743196,64
1774422807.7923985,61
1774422807.8071542,57
1774422807.824565,54
1774422807.8395555,51
1774422807.8564694,48
1774422807.876533,46
1774422807.890929,44
1774422807.90769,43
1774422807.923895,42
1774422807.940966,40
1774422807.959316,40
1774422807.9738615,39
1774422807.996248,37
1774422808.0067236,35
1774422808.024395,33
1774422808.0387661,31
1774422808.0623796,29
1774422808.0721993,27
1774422808.0909145,25
1774422808.1074352,23
1774422808.124188,22
1774422808.1390123,21
1774422808.1595004,20
1774422808.1738431,19
1774422808.189629,18
1774422808.2060063,17
1774422808.22266,16
1774422808.2399492,15
1774422808.257116,15
1774422808.2737134,14
1774422808.292838,13
1774422808.3054957,13
1774422808.3256428,12
1774422808.342311,11
1774422808.359339,10
1774422808.3757563,10
1774422808.3896816,9
1774422808.4055831,8
1774422808.4243598,8
1774422808.4396799,11
1774422808.4571009,18
1774422808.4722693,28
1774422808.4897099,40
1774422808.5070834,52
1774422808.528548,65
1774422808.542585,75
1774422808.5606441,80
1774422808.5721974,81
1774422808.5895557,80
1774422808.6074176,77
1774422808.6264198,74
1774422808.6391776,71
1774422808.6630654,67
1774422808.6765738,64
1774422808.693928,61
1774422808.7071786,58
1774422808.7293048,55
1774422808.7406886,52
1774422808.7566488,49
1774422808.776446,47
1774422808.7950397,45
1774422808.805475,44
1774422808.8222432,43
1774422808.8401272,42
1774422808.859385,41
1774422808.8744342,40
1774422808.8898227,39
1774422808.906329,37
1774422808.92867,35
1774422808.9411657,33
1774422808.9644082,31
1774422808.9722629,29
1774422808.9900155,27
1774422809.005667,25
1774422809.02379,24
1774422809.0388672,22
1774422809.0555384,21
1774422809.0757928,20
1774422809.0919628,19
1774422809.1073053,19
1774422809.1257167,18
1774422809.1434536,17
1774422809.1580925,17
1774422809.1742566,16
1774422809.1904378,15
1774422809.20573,15
1774422809.2224448,14
1774422809.238699,14
1774422809.2572045,17
1774422809.275639,23
1774422809.289593,32
1774422809.307343,42
1774422809.326117,54
1774422809.3412578,66
1774422809.3629453,74
1774422809.3748786,78
1774422809.3899603,78
1774422809.4061997,76
1774422809.422812,73
1774422809.4407823,69
1774422809.457205,66
1774422809.4762592,62
1774422809.4923325,59
1774422809.5068285,56
1774422809.5238354,53
1774422809.5393262,50
1774422809.5610178,47
1774422809.5724356,45
1774422809.590617,43
1774422809.6060224,42
1774422809.6236517,41
1774422809.6387198,41
1774422809.663311,40
1774422809.6815495,40
1774422809.6955118,38
1774422809.7055597,36
1774422809.7242234,34
1774422809.742383,32
1774422809.7603812,30
1774422809.772814,27
1774422809.7924473,25
1774422809.8080568,23
1774422809.8225832,22
1774422809.8392384,20
1774422809.8606536,19
1774422809.8808978,18
1774422809.893488,17
1774422809.913467,16
1774422809.925494,15
1774422809.9417365,14
1774422809.9591823,14
1774422809.9812162,13
1774422809.9890494,13
1774422810.0055468,12
1774422810.0232499,12
1774422810.0397794,12
1774422810.0566354,16
1774422810.0742226,24
1774422810.0900376,35
1774422810.1093547,46
1774422810.13254,59
1774422810.1414158,71
1774422810.1575122,78
1774422810.1732984,82
1774422810.1909697,82
1774422810.2078943,80
1774422810.2219684,77
1774422810.2466748,74
1774422810.2561808,71
1774422810.2723036,68
1774422810.289931,65
1774422810.3060443,62
1774422810.325243,59
1774422810.3403559,56
1774422810.3598785,53
1774422810.3727093,50
1774422810.3908083,47
1774422810.4055939,46
1774422810.4243486,44
1774422810.4387925,43
1774422810.4651656,42
1774422810.4720008,41
1774422810.4900968,40
1774422810.5079021,39
1774422810.522752,37
1774422810.5403264,34
1774422810.5633357,32
1774422810.5727499,30
1774422810.5903993,28
1774422810.6057942,26
1774422810.6256115,24
1774422810.6407917,22
1774422810.6575265,21
1774422810.6729429,20
1774422810.6932583,19
1774422810.7055478,18
1774422810.727248,17
1774422810.744762,16
1774422810.75908,16
1774422810.7722971,15
1774422810.7903419,15
1774422810.805569,14
1774422810.8235893,13
1774422810.8386633,13
1774422810.8575642,15
1774422810.8723426,20
1774422810.890774,29
1774422810.906671,40
1774422810.9255185,52
1774422810.9410846,64
1774422810.9569974,74
1774422810.9723566,79
1774422810.9899714,81
1774422811.0059922,80
1774422811.022186,78
1774422811.0388114,74
1774422811.0602114,71
1774422811.0766459,68
1774422811.0910811,65
1774422811.1078315,63
1774422811.1238184,60
1774422811.1399517,57
1774422811.1580846,53
1774422811.172361,50
1774422811.1904187,48
1774422811.205466,46
1774422811.2231975,45
1774422811.2387226,43
1774422811.2581897,42
1774422811.275421,41
1774422811.297632,40
1774422811.3059058,39
1774422811.325962,37
1774422811.3451452,35
1774422811.3588312,33
1774422811.3722355,30
1774422811.3900478,28
1774422811.4092298,26
1774422811.4255774,25
1774422811.4395387,23
1774422811.4570086,22
1774422811.4747198,20
1774422811.4947338,19
1774422811.505615,18
1774422811.5240092,17
1774422811.5390987,17
1774422811.5566254,16
1774422811.5720227,15
1774422811.5892444,15
1774422811.60567,14
1774422811.6220505,14
1774422811.6389265,13
1774422811.6570935,13
1774422811.6757486,16
1774422811.6943514,23
1774422811.70687,33
1774422811.7244334,43
1774422811.7392156,56
1774422811.7591536,68
1774422811.7721186,76
1774422811.7910924,80
1774422811.8109424,80
1774422811.823942,79
1774422811.8429484,75
1774422811.8594701,72
1774422811.8752458,69
1774422811.8909,66
1774422811.906999,62
1774422811.9230375,59
1774422811.9404979,56
1774422811.9554071,54
1774422811.9732761,51
1774422811.990102,48
1774422812.0054667,46
1774422812.028617,45
1774422812.0498421,43
1774422812.0600836,43
1774422812.0721314,42
1774422812.091168,40
1774422812.1057162,40
1774422812.1229546,38
1774422812.1406658,36
1774422812.161716,34
1774422812.174927,32
1774422812.193966,30
1774422812.2227337,28
1774422812.231615,26
1774422812.2418108,24
1774422812.2614264,23
1774422812.278165,22
1774422812.2896063,21
1774422812.3056715,20
1774422812.3244452,19
1774422812.3392806,19
1774422812.3580742,18
1774422812.3720536,18
1774422812.3938844,17
1774422812.4072127,17
1774422812.4280758,16
1774422812.4387102,17
1774422812.456082,22
1774422812.4717965,30
1774422812.4888678,40
1774422812.507123,50
1774422812.5240827,62
1774422812.5440826,71
1774422812.5556657,77
1774422812.5723221,79
1774422812.589518,77
1774422812.6062813,74
1774422812.6281714,71
1774422812.6395967,67
1774422812.6563563,63
1774422812.6740863,60
1774422812.6901765,56
1774422812.7068005,53
1774422812.7222445,51
1774422812.7439737,48
1774422812.7588706,46
1774422812.7746124,44
1774422812.7894976,43
1774422812.8055358,42
1774422812.8222427,42
1774422812.845653,41
1774422812.858903,40
1774422812.8721166,40
1774422812.8934476,38
1774422812.907584,36
1774422812.926463,34
1774422812.939689,31
1774422812.9578075,29
1774422812.9740512,27
1774422812.9907131,25
1774422813.0064714,24
1774422813.0306203,22
1774422813.0398786,21
1774422813.0607975,20
1774422813.0833395,19
1774422813.0907438,19
1774422813.1113367,18
1774422813.126715,17
1774422813.1394753,17
1774422813.1579618,17
1774422813.1738157,16
1774422813.1905534,16
1774422813.2055836,16
1774422813.2277951,19
1774422813.2384179,26
1774422813.2582774,36
1774422813.274496,46
1774422813.2922132,58
1774422813.3056066,70
1774422813.324406,78
1774422813.340468,82
1774422813.3555918,83
1774422813.3734114,81
1774422813.3905413,78
1774422813.4060843,75
1774422813.428582,72
1774422813.4445808,69
1774422813.4578536,66
1774422813.4833455,63
1774422813.4896991,60
1774422813.5081706,57
1774422813.5243466,54
1774422813.5398836,51
1774422813.5579288,48
1774422813.5720885,46
1774422813.5892916,45
1774422813.6068282,44
1774422813.62285,43
1774422813.6384814,42
1774422813.6583455,40
1774422813.6743305,40
1774422813.6905522,38
1774422813.7067103,35
1774422813.7247622,33
1774422813.7395022,31
1774422813.7583616,29
1774422813.7760634,27
1774422813.794324,26
1774422813.8058205,24
1774422813.8262098,23
1774422813.842562,22
1774422813.8553925,21
1774422813.8791325,21
1774422813.8927162,20
1774422813.9091315,19
1774422813.9255233,19
1774422813.939445,18
1774422813.9577227,18
1774422813.9736407,17
1774422813.9890077,17
1774422814.00685,16
1774422814.025361,19
1774422814.0390325,24
1774422814.0565898,33
1774422814.0736926,43
1774422814.089469,55
1774422814.1056373,67
1774422814.1226046,76
1774422814.138821,81
1774422814.1556673,82
1774422814.1749742,80
1774422814.1924608,78
1774422814.2081578,75
1774422814.2226043,72
1774422814.2388475,69
1774422814.2555223,66
1774422814.2742589,64
1774422814.2890143,60
1774422814.3066106,57
1774422814.3280334,54
1774422814.3403316,51
1774422814.3581421,48
1774422814.3752484,46
1774422814.3890233,45
1774422814.405215,44
1774422814.4244287,43
1774422814.4388266,42
1774422814.4619884,40
1774422814.4716969,40
1774422814.4891067,38
1774422814.5068927,35
1774422814.5270317,33
1774422814.5401003,31
1774422814.5572674,29
1774422814.572617,27
1774422814.5895932,26
1774422814.6055388,24
1774422814.626119,23
1774422814.641154,22
1774422814.6555922,21
1774422814.671971,21
1774422814.6892612,20
1774422814.7065434,20
1774422814.7247324,19
1774422814.7387838,19
1774422814.756332,18
1774422814.7722685,18
1774422814.790425,17
1774422814.8081875,16
1774422814.822908,17
1774422814.8383842,20
1774422814.8559394,27
1774422814.8722088,37
1774422814.8961213,47
1774422814.912263,59
1774422814.9265025,70
1774422814.9405494,76
1774422814.9621475,79
1774422814.9723625,79
1774422814.9893825,77
1774422815.0054128,73
1774422815.027784,70
1774422815.0396492,67
1774422815.0600636,64
1774422815.073699,61
1774422815.0927563,58
1774422815.10668,55
1774422815.1221805,52
1774422815.1400685,49
1774422815.1560678,47
1774422815.173461,45
1774422815.1897154,44
1774422815.205356,44
1774422815.22529,43
1774422815.238745,42
1774422815.2574294,41
1774422815.2716684,40
1774422815.291529,38
1774422815.3066094,36
1774422815.3322804,34
1774422815.3405104,32
1774422815.3565648,30
1774422815.373941,28
1774422815.3902824,26
1774422815.4071648,25
1774422815.424993,24
1774422815.4404736,23
1774422815.4561517,22
1774422815.4741383,21
1774422815.4891956,20
1774422815.507155,20
1774422815.5254161,19
1774422815.5390565,19
1774422815.5601857,18
1774422815.5719502,18
1774422815.589637,18
1774422815.6054535,17
1774422815.626248,17
1774422815.6383135,19
1774422815.6561925,24
1774422815.6723673,33
1774422815.6924596,43
1774422815.7068858,55
1774422815.7237842,66
1774422815.744384,75
1774422815.7554324,80
1774422815.7722719,81
1774422815.792385,80
1774422815.8066301,77
1774422815.8220222,74
1774422815.839527,71
1774422815.8556612,69
1774422815.872356,66
1774422815.89459,63
1774422815.9070685,60
1774422815.9260259,57
1774422815.9388232,53
1774422815.956379,50
1774422815.9727252,48
1774422815.9897776,46
1774422816.0063722,44
1774422816.0234942,43
1774422816.0382533,42
1774422816.059279,41
1774422816.0720465,40
1774422816.092875,39
1774422816.1068738,37
1774422816.123199,35
1774422816.1388614,33
1774422816.1562393,31
1774422816.1735966,29
1774422816.1887317,27
1774422816.207037,26
1774422816.2220063,24
1774422816.2403572,23
1774422816.2621655,22
1774422816.2731187,21
1774422816.2896183,21
1774422816.3065026,20
1774422816.3257465,19
1774422816.34045,19
1774422816.3587754,18
1774422816.3731294,17
1774422816.3904178,17
1774422816.4105024,16
1774422816.4226975,16
1774422816.4387293,15
1774422816.4590979,15
1774422816.4736135,15
1774422816.4908435,18
1774422816.5063925,25
1774422816.5243666,35
1774422816.540167,46
1774422816.5563636,58
1774422816.573053,70
1774422816.589538,78
1774422816.6063936,81
1774422816.6221719,82
1774422816.6422482,80
1774422816.6556568,77
1774422816.6744528,74
1774422816.6939635,71
1774422816.706485,69
1774422816.724262,66
1774422816.7395425,63
1774422816.7554064,60
1774422816.7732265,57
1774422816.7898693,53
1774422816.8084273,50
1774422816.827164,48
1774422816.8415396,46
1774422816.8566287,44
1774422816.8723123,43
1774422816.8912075,42
1774422816.906404,41
1774422816.9226606,40
1774422816.9404082,39
1774422816.9574463,37
1774422816.9726844,34
1774422816.9941251,32
1774422817.0068417,30
1774422817.0258374,28
1774422817.03888,26
1774422817.0589082,25
1774422817.0725625,23
1774422817.0943294,22
1774422817.107172,21
1774422817.122072,20
1774422817.1408293,19
1774422817.1582797,19
1774422817.1725252,18
1774422817.190017,17
1774422817.2071702,17
1774422817.2237685,16
1774422817.2391188,15
1774422817.2553794,15
1774422817.272565,14
1774422817.2887104,13
1774422817.3067422,13
1774422817.3265543,12
1774422817.3401353,11
1774422817.3607914,12
1774422817.3746698,17
1774422817.389654,26
1774422817.4113002,37
1774422817.4287932,49
1774422817.4402637,62
1774422817.4583783,74
1774422817.4757695,80
1774422817.4887228,83
1774422817.5078056,82
1774422817.525569,80
1774422817.5399091,76
1774422817.5560186,73
1774422817.5717359,70
1774422817.5886238,67
1774422817.6060328,64
1774422817.622216,60
1774422817.6451626,57
1774422817.6559157,54
1774422817.673353,51
1774422817.6930065,49
1774422817.7087615,47
1774422817.7226527,46
1774422817.7412927,45
1774422817.7575452,44
1774422817.773466,43
1774422817.79517,42
1774422817.8056877,40
1774422817.8251326,39
1774422817.8401406,37
1774422817.857578,35
1774422817.8733993,32
1774422817.8889642,30
1774422817.907634,28
1774422817.923456,27
1774422817.9389956,25
1774422817.957708,24
1774422817.9728334,23
1774422817.992754,22
1774422818.0054786,21
1774422818.0275846,20
1774422818.038896,20
1774422818.0563378,19
1774422818.073491,19
1774422818.090954,18
1774422818.1103265,18
1774422818.1222064,17
1774422818.139391,17
1774422818.1558824,17
1774422818.1778188,20
1774422818.1918159,27
1774422818.2076323,37
1774422818.2263672,47
1774422818.2414515,59
1774422818.2573304,70
1774422818.2721062,77
1774422818.2921004,80
1774422818.3073146,79
1774422818.3224819,76
1774422818.3406296,73
1774422818.3558753,69
1774422818.3737319,66
1774422818.3912585,62
1774422818.4090352,59
1774422818.4236538,56
1774422818.4418194,53
1774422818.4554412,50
1774422818.472362,47
1774422818.488795,45
1774422818.505608,43
1774422818.5232801,43
1774422818.5407763,42
1774422818.5563822,41
1774422818.5722947,40
1774422818.5899138,40
1774422818.6056955,38
1774422818.6230886,36
1774422818.6390383,34
1774422818.655968,32
1774422818.6749034,30
1774422818.6944883,28
1774422818.7140539,26
1774422818.7288678,24
1774422818.7396877,22
1774422818.758059,21
1774422818.7733912,20
1774422818.789721,19
1774422818.8066869,18
1774422818.8223715,17
1774422818.8404462,17
1774422818.8578568,16
1774422818.8722053,16
1774422818.8896904,15
1774422818.9063964,15
1774422818.9227757,14
1774422818.9393275,14
1774422818.9561422,13
1774422818.9723191,13
1774422818.9930284,17
1774422819.0061514,24
1774422819.0229728,35
1774422819.0390575,46
1774422819.0582817,59
1774422819.0736353,72
1774422819.094236,81
1774422819.1055634,85
1774422819.1228838,85
1774422819.1468425,84
1774422819.1616037,81
1774422819.1733766,77
1774422819.1896555,74
1774422819.2053792,72
1774422819.222902,69
1774422819.2404268,66
1774422819.25897,63
1774422819.272395,59
1774422819.292255,56
1774422819.30545,52
1774422819.3229086,50
1774422819.3388746,48
1774422819.3559754,46
1774422819.374083,45
1774422819.394517,44
1774422819.4066133,43
1774422819.4268281,41
1774422819.4396124,40
1774422819.4599648,39
1774422819.473292,36
1774422819.493553,34
1774422819.5066504,32
1774422819.52388,30
1774422819.5397835,28
1774422819.5583687,26
1774422819.5720177,25
1774422819.5891848,24
1774422819.60913,22
1774422819.6221473,22
1774422819.6390553,21
1774422819.65583,20
1774422819.6732328,19
1774422819.6892147,19
1774422819.7053778,18
1774422819.72202,18
1774422819.740393,17
1774422819.7632039,17
1774422819.77339,16
1774422819.7936003,16
1774422819.8056564,17
1774422819.8230665,21
1774422819.8388119,29
1774422819.8611512,40
1774422819.8735216,51
1774422819.89072,63
1774422819.906684,74
1774422819.9254267,80
1774422819.9436507,83
1774422819.9598687,82
1774422819.9734488,80
1774422819.9907563,77
1774422820.005631,74
1774422820.021486,71
1774422820.0401068,68
1774422820.0563252,65
1774422820.0722122,62
1774422820.0884328,59
1774422820.1055415,56
1774422820.1225178,52
1774422820.1397948,50
1774422820.1555018,47
1774422820.172085,46
1774422820.1882908,45
1774422820.2071922,44
1774422820.2244253,43
1774422820.242382,41
1774422820.2574759,40
1774422820.279272,39
1774422820.2943661,37
1774422820.3051329,35
1774422820.3245785,32
1774422820.3400395,30
1774422820.3588202,28
1774422820.375774,27
1774422820.3913655,25
1774422820.4057446,24
1774422820.4221618,23
1774422820.439116,22
1774422820.4552727,21
1774422820.4713907,20
1774422820.492502,20
1774422820.505609,19
1774422820.525102,19
1774422820.5443904,18
1774422820.56392,18
1774422820.571538,17
1774422820.5896165,16
1774422820.6055937,16
1774422820.629408,16
1774422820.640489,19
1774422820.6616356,26
1774422820.6749518,36
1774422820.6896842,46
1774422820.7066932,58
1774422820.7227476,69
1774422820.738726,77
1774422820.7555752,80
1774422820.773468,80
1774422820.789992,77
1774422820.80706,74
1774422820.8217757,71
1774422820.8395762,68
1774422820.8554268,64
1774422820.8724673,61
1774422820.892298,58
1774422820.9097397,55
1774422820.9314342,52
1774422820.9404695,49
1774422820.9635441,47
1774422820.972856,46
1774422820.9954753,45
1774422821.0113895,44
1774422821.0234776,43
1774422821.0409048,42
1774422821.0605533,41
1774422821.081312,40
1774422821.0888307,38
1774422821.1078954,36
1774422821.1228755,34
1774422821.1388772,32
1774422821.1555927,30
1774422821.1725986,28
1774422821.1894927,27
1774422821.2188869,25
1774422821.221489,24
1774422821.2389302,23
1774422821.263159,22
1774422821.2713642,21
1774422821.2891366,21
1774422821.305409,20
1774422821.3230186,20
1774422821.3387465,20
1774422821.3563566,19
1774422821.3721998,19
1774422821.3937645,18
1774422821.4071598,18
1774422821.4229326,21
1774422821.4422262,27
1774422821.4574974,36
1774422821.4735117,46
1774422821.4897978,58
1774422821.509149,68
1774422821.5222795,76
1774422821.539096,79
1774422821.5575562,79
1774422821.5717611,77
1774422821.5893033,74
1774422821.6061995,71
1774422821.6221778,68
1774422821.646529,65
1774422821.6562288,62
1774422821.6728225,59
1774422821.6923122,56
1774422821.7046494,53
1774422821.7234344,50
1774422821.7436113,47
1774422821.7603855,45
1774422821.7724502,44
1774422821.7911325,43
1774422821.8075805,42
1774422821.8258543,41
1774422821.8401558,40
1774422821.8553038,40
1774422821.8724473,38
1774422821.8887987,36
1774422821.906108,33
1774422821.9223325,31
1774422821.9388747,29
1774422821.9566143,28
1774422821.9734082,26
1774422821.989114,25
1774422822.0056577,23
1774422822.0216253,22
1774422822.0402951,21
1774422822.0588408,20
1774422822.0725427,20
1774422822.09038,19
1774422822.1062262,19
1774422822.1275682,18
1774422822.1387713,18
1774422822.1594164,17
1774422822.1721573,17
1774422822.189011,16
1774422822.2056901,16
1774422822.2237334,15
1774422822.2393956,18
1774422822.2555964,24
1774422822.2735069,33
1774422822.293218,43
1774422822.3064744,55
1774422822.3241293,67
1774422822.339426,76
1774422822.3608074,80
1774422822.372152,82
1774422822.3899248,80
1774422822.4101353,78
1774422822.4223807,75
1774422822.4395983,72
1774422822.4576957,70
1774422822.4722872,67
1774422822.4887674,64
1774422822.5055363,61
1774422822.5222485,58
1774422822.5388777,54
1774422822.5559325,51
1774422822.5716002,48
1774422822.5885973,46
1774422822.6055381,44
1774422822.6225128,43
1774422822.6391988,42
1774422822.6591952,41
1774422822.6723278,40
1774422822.6908133,39
1774422822.706849,37
1774422822.7253816,35
1774422822.7432961,33
1774422822.7557912,31
1774422822.7735121,29
1774422822.7928386,27
1774422822.8053641,26
1774422822.822038,24
1774422822.8399749,23
1774422822.8545659,22
1774422822.8744655,21
1774422822.8902173,20
1774422822.9055512,19
1774422822.92242,19
1774422822.9401634,18
1774422822.9554193,18
1774422822.9722586,17
1774422822.991845,16
1774422823.005801,16
1774422823.0227585,15
1774422823.041045,15
1774422823.056194,14
1774422823.073589,14
1774422823.0915444,17
1774422823.1065717,24
1774422823.1254687,34
1774422823.1402485,45
1774422823.1592634,57
1774422823.1751914,68
1774422823.1911623,75
1774422823.2067604,79
1774422823.224552,79
1774422823.2404108,77
1774422823.2561522,74
1774422823.2721465,71
1774422823.288703,69
1774422823.3046415,66
1774422823.323164,63
1774422823.3451765,60
1774422823.3564284,57
1774422823.3733625,54
1774422823.3909955,51
1774422823.4075704,48
1774422823.4230323,45
1774422823.4408174,44
1774422823.456684,42
1774422823.4749348,42
1774422823.493799,41
1774422823.5056129,40
1774422823.5236692,39
1774422823.5390706,37
1774422823.55752,35
1774422823.5734963,33
1774422823.5885327,31
1774422823.6051037,29
1774422823.6222415,27
1774422823.6385126,26
1774422823.6553495,24
1774422823.6733413,23
1774422823.6897655,22
1774422823.7149205,21
1774422823.7261028,20
1774422823.7415206,19
1774422823.757369,19
1774422823.7721722,18
1774422823.7905397,18
1774422823.8056626,17
1774422823.8226035,17
1774422823.8388066,17
1774422823.8593297,16
1774422823.873526,15
1774422823.891464,15
1774422823.907436,16
1774422823.9229174,21
1774422823.9394798,30
1774422823.9558883,40
1774422823.972405,51
1774422823.9888682,62
1774422824.0070412,71
1774422824.0220141,75
1774422824.0399044,76
1774422824.054548,75
1774422824.073468,72
1774422824.0960178,68
1774422824.1144457,64
1774422824.1237814,61
1774422824.1435182,58
1774422824.1606135,55
1774422824.1717162,52
1774422824.1890144,49
1774422824.2067864,47
1774422824.2225327,44
1774422824.2415128,43
1774422824.25545,42
1774422824.2720616,41
1774422824.2900927,40
1774422824.3070364,40
1774422824.3277194,39
1774422824.3398688,38
1774422824.3580058,36
1774422824.3778381,34
1774422824.3891652,32
1774422824.4048707,29
1774422824.4221196,27
1774422824.439552,26
1774422824.4571507,24
1774422824.4734504,22
1774422824.4982402,21
1774422824.5045886,20
1774422824.523785,19
1774422824.5430732,18
1774422824.5562804,18
1774422824.5722492,17
1774422824.5894055,16
1774422824.6059043,16
1774422824.6267884,15
1774422824.6395197,15
1774422824.655787,15
1774422824.6798089,14
1774422824.6926813,14
1774422824.707122,13
1774422824.7236776,12
1774422824.7387898,12
1774422824.7603097,15
1774422824.7733998,21
1774422824.7912476,31
1774422824.806814,41
1774422824.8294847,54
1774422824.8413343,66
1774422824.8604946,75
1774422824.8756654,80
1774422824.8935783,81
1774422824.9054682,79
1774422824.924742,77
1774422824.940547,73
1774422824.9566622,70
1774422824.9714148,67
1774422824.989671,65
1774422825.0048068,62
1774422825.0229642,58
1774422825.0404015,55
1774422825.0589368,52
1774422825.0745533,49
1774422825.0904367,46
1774422825.1091409,45
1774422825.1242807,43
1774422825.1382856,42
1774422825.1594734,42
1774422825.175771,40
1774422825.18987,40
1774422825.2066443,38
1774422825.2214434,36
1774422825.2386978,34
1774422825.2545762,32
1774422825.2733316,30
1774422825.2887785,28
1774422825.3064666,26
1774422825.3247054,24
1774422825.3403704,23
1774422825.3558302,22
1774422825.3716426,21
1774422825.392552,20
1774422825.407177,19
1774422825.4251275,18
1774422825.4397554,18
1774422825.4566941,17
1774422825.4733908,16
1774422825.4928904,16
1774422825.5078917,15
1774422825.5227,14
1774422825.5409722,14
1774422825.5611196,13
1774422825.5716906,13
1774422825.5884593,12
1774422825.605596,12
1774422825.6214347,11
1774422825.6401675,10
1774422825.6563435,10
1774422825.6724195,12
1774422825.687789,19
1774422825.7073843,29
1774422825.721923,40
1774422825.7387164,54
1774422825.7643735,67
1774422825.773607,77
1774422825.7942665,82
1774422825.8105469,84
1774422825.8290613,83
1774422825.8401892,80
1774422825.8589156,77
1774422825.8771102,74
1774422825.8901417,72
1774422825.9088511,69
1774422825.924435,66
1774422825.9404302,63
1774422825.9553661,60
1774422825.97378,56
1774422825.9888508,53
1774422826.0067816,50
1774422826.0221756,48
1774422826.0388517,46
1774422826.0544364,45
1774422826.073659,43
1774422826.0890265,42
1774422826.1055193,41
1774422826.1229322,40
1774422826.1401348,38
1774422826.155475,36
1774422826.1722386,34
1774422826.1936073,32
1774422826.2063074,30
1774422826.22552,28
1774422826.2390468,26
1774422826.25739,24
1774422826.272149,23
1774422826.2894359,22
1774422826.3054857,21
1774422826.3264768,20
1774422826.3413515,19
1774422826.356807,18
1774422826.3724482,17
1774422826.3938396,17
1774422826.4093335,16
1774422826.4243908,15
1774422826.4380715,15
1774422826.4543579,14
1774422826.4811559,13
1774422826.4894068,13
1774422826.5044653,12
1774422826.5243998,11
1774422826.543926,11
1774422826.5604458,10
1774422826.5720286,9
1774422826.5884225,9
1774422826.6064148,13
1774422826.623118,21
1774422826.6389334,32
1774422826.655777,43
1774422826.6737728,57
1774422826.6896904,69
1774422826.7069688,77
1774422826.724314,81
1774422826.741857,81
1774422826.7555258,79
1774422826.7724938,76
1774422826.7889373,73
1774422826.8078213,70
1774422826.8221638,67
1774422826.8390317,64
1774422826.8616223,61
1774422826.8752465,58
1774422826.8898213,55
1774422826.9073606,52
1774422826.9234838,49
1774422826.9400938,47
1774422826.962557,45
1774422826.9722688,44
1774422826.9942243,44
1774422827.0044963,43
1774422827.0261796,42
1774422827.038813,40
1774422827.0556426,39
1774422827.0737765,37
1774422827.088914,35
1774422827.1077714,33
1774422827.1255817,31
1774422827.139639,29
1774422827.1569057,27
1774422827.1735365,25
1774422827.192138,24
1774422827.205377,22
1774422827.221951,21
1774422827.241324,20
1774422827.2610157,19
1774422827.2733262,19
1774422827.294234,18
1774422827.3056333,17
1774422827.3219743,17
1774422827.3388958,16
1774422827.3653917,15
1774422827.3725312,15
1774422827.3894935,14
1774422827.408911,14
1774422827.4233873,13
1774422827.4387946,12
1774422827.4609601,13
1774422827.471923,18
1774422827.4897473,26
1774422827.505424,36
1774422827.5263433,47
1774422827.54165,60
1774422827.5583694,70
1774422827.5720727,77
1774422827.589529,79
1774422827.6060758,79
1774422827.6222055,77
1774422827.6382637,73
1774422827.654545,70
1774422827.6721141,66
1774422827.6976547,63
1774422827.7054226,60
1774422827.7226737,57
1774422827.7441943,54
1774422827.7564116,51
1774422827.7729225,49
1774422827.7884243,46
1774422827.8056047,45
1774422827.8219075,43
1774422827.8388858,43
1774422827.8680446,42
1774422827.8736408,41
1774422827.88887,40
1774422827.9065442,39
1774422827.92291,37
1774422827.9383368,35
1774422827.9544334,33
1774422827.97321,30
1774422827.9889252,28
1774422828.0085185,26
1774422828.021496,24
1774422828.038706,23
1774422828.054479,22
1774422828.072642,20
1774422828.0898602,20
1774422828.105519,19
1774422828.1251006,18
1774422828.1440172,17
1774422828.1548014,16
1774422828.17384,16
1774422828.1951585,15
1774422828.2056503,15
1774422828.222465,14
1774422828.2397544,14
1774422828.2557888,13
1774422828.2712727,13
1774422828.289115,12
1774422828.3056972,11
1774422828.325255,11
1774422828.3404887,14
1774422828.357364,20
1774422828.3740795,30
1774422828.3905947,41
1774422828.4054701,54
1774422828.4217336,67
1774422828.4396205,77
1774422828.4556334,83
1774422828.4719908,84
1774422828.4956138,83
1774422828.5042398,81
1774422828.5261855,78
1774422828.5387945,75
1774422828.5579152,72
1774422828.5721745,69
1774422828.5884283,66
1774422828.6046457,63
1774422828.621387,60
1774422828.644167,57
1774422828.6556416,54
1774422828.6727118,51
1774422828.6917388,49
1774422828.7069097,47
1774422828.7252872,46
1774422828.745011,45
1774422828.7609594,44
1774422828.7734482,42
1774422828.791856,40
1774422828.8072464,39
1774422828.8220277,37
1774422828.8393204,35
1774422828.8543468,33
1774422828.8751862,31
1774422828.8913622,29
1774422828.908546,27
1774422828.9222634,25
1774422828.93967,24
1774422828.9589791,23
1774422828.9715598,22
1774422828.9900143,21
1774422829.0054126,20
1774422829.0276031,19
1774422829.0410402,19
1774422829.0582016,18
1774422829.0731144,17
1774422829.09263,17
1774422829.1066706,16
1774422829.124254,15
1774422829.1407747,15
1774422829.156082,14
1774422829.172832,14
1774422829.1889277,13
1774422829.2067473,12
1774422829.2221174,12
1774422829.240228,15
1774422829.254255,21
1774422829.27416,31
1774422829.288375,41
1774422829.3044753,54
