timestamp,bvp
1774418924.970084,40
1774418924.9867916,50
1774418925.003438,60
1774418925.0201254,68
1774418925.0367737,72
1774418925.0534215,74
1774418925.07009,73
1774418925.0867584,72
1774418925.1034079,71
1774418925.1201155,70
1774418925.136804,70
1774418925.1534264,71
1774418925.1701095,72
1774418925.1867642,72
1774418925.2034583,71
1774418925.2200792,70
1774418925.236962,68
1774418925.253907,66
1774418925.2701478,64
1774418925.2871764,63
1774418925.3036766,62
1774418925.320253,61
1774418925.3371646,60
1774418925.354657,58
1774418925.3706176,56
1774418925.3874357,54
1774418925.403936,52
1774418925.4208508,50
1774418925.4373105,47
1774418925.4635742,45
1774418925.472773,43
1774418925.4877782,42
1774418925.5045018,40
1774418925.5215263,40
1774418925.5379777,38
1774418925.55373,37
1774418925.570529,35
1774418925.5872564,34
1774418925.603797,33
1774418925.6204302,31
1774418925.636998,30
1774418925.6538522,28
1774418925.670312,27
1774418925.6869164,26
1774418925.7045715,24
1774418925.7259312,23
1774418925.741042,22
1774418925.7642603,21
1774418925.7704008,20
1774418925.7872772,19
1774418925.8041015,18
1774418925.8217306,17
1774418925.841603,16
1774418925.8569446,16
1774418925.8760624,15
1774418925.8967593,14
1774418925.9078403,13
1774418925.930419,13
1774418925.9404337,15
1774418925.9563127,20
1774418925.9749842,27
1774418925.9897738,36
1774418926.0039215,45
1774418926.0212126,55
1774418926.0375595,62
1774418926.0630336,67
1774418926.0790775,68
1774418926.0962744,67
1774418926.113144,66
1774418926.1282606,65
1774418926.136786,64
1774418926.157976,64
1774418926.178162,65
1774418926.1934395,66
1774418926.2101183,65
1774418926.2302868,65
1774418926.2437792,63
1774418926.2569609,61
1774418926.2719307,60
1774418926.288006,58
1774418926.3038223,57
1774418926.3247738,56
1774418926.3383062,54
1774418926.357951,53
1774418926.3703063,51
1774418926.3888204,49
1774418926.4042606,47
1774418926.4212513,45
1774418926.4421809,43
1774418926.455057,40
1774418926.4715056,39
1774418926.4880927,37
1774418926.504155,36
1774418926.5212955,34
1774418926.5385787,33
1774418926.554653,31
1774418926.5723093,30
1774418926.5887227,29
1774418926.6046615,28
1774418926.621142,26
1774418926.637209,25
1774418926.6539233,24
1774418926.6714876,23
1774418926.688248,21
1774418926.7057335,20
1774418926.7210333,19
1774418926.7374492,18
1774418926.7561316,17
1774418926.771171,16
1774418926.7879703,15
1774418926.8044326,14
1774418926.8207967,14
1774418926.8368945,13
1774418926.857159,12
1774418926.8718941,12
1774418926.88766,11
1774418926.90435,10
1774418926.921186,9
1774418926.938193,9
1774418926.9554217,10
1774418926.9711506,15
1774418926.9867024,21
1774418927.004798,29
1774418927.0209007,39
1774418927.0380135,47
1774418927.0546007,54
1774418927.0734448,58
1774418927.0886097,60
1774418927.1115234,59
1774418927.1240056,57
1774418927.1371107,56
1774418927.1551378,55
1774418927.175596,55
1774418927.187988,55
1774418927.204775,56
1774418927.222536,56
1774418927.2366636,56
1774418927.2540975,55
1774418927.2699764,54
1774418927.2878745,53
1774418927.3037739,52
1774418927.3226342,52
1774418927.339428,51
1774418927.359733,50
1774418927.3719552,49
1774418927.3881664,47
1774418927.4128902,45
1774418927.427716,43
1774418927.4430203,41
1774418927.4566603,40
1774418927.4715552,38
1774418927.493897,37
1774418927.506128,36
1774418927.5262425,34
1774418927.5408454,33
1774418927.5577946,32
1774418927.5730836,31
1774418927.596291,30
1774418927.6046898,29
1774418927.621763,28
1774418927.6382809,27
1774418927.6631484,26
1774418927.6700277,25
1774418927.700792,24
1774418927.7076838,23
1774418927.7295372,22
1774418927.7428002,21
1774418927.7714849,20
1774418927.7800653,19
1774418927.787324,18
1774418927.8044403,17
1774418927.8203044,16
1774418927.8420181,16
1774418927.8617318,15
1774418927.877891,14
1774418927.8897178,13
1774418927.907184,12
1774418927.9218588,12
1774418927.9397464,14
1774418927.9556828,18
1774418927.9709532,25
1774418927.9886649,34
1774418928.0038946,43
1774418928.0245557,53
1774418928.0385518,60
1774418928.0561602,65
1774418928.0707493,67
1774418928.0882704,66
1774418928.1047592,65
1774418928.1247766,64
1774418928.140513,64
1774418928.155284,65
1774418928.1734598,66
1774418928.1956723,67
1774418928.2131689,67
1774418928.2224164,66
1774418928.2415562,65
1774418928.2547762,63
1774418928.2726078,61
1774418928.2876077,60
1774418928.304985,59
1774418928.3297546,58
1774418928.339117,57
1774418928.3631861,56
1774418928.376113,54
1774418928.396203,52
1774418928.4062083,50
1774418928.4259744,48
1774418928.436735,46
1774418928.4583192,43
1774418928.4698956,41
1774418928.4945695,40
1774418928.5067565,39
1774418928.526568,37
1774418928.539498,36
1774418928.5564334,34
1774418928.574654,33
1774418928.5921292,32
1774418928.6065366,31
1774418928.6221957,30
1774418928.6415892,29
1774418928.6542242,28
1774418928.670946,26
1774418928.6882634,25
1774418928.7102706,24
1774418928.7249134,23
1774418928.740746,22
1774418928.7571137,21
1774418928.772372,20
1774418928.7872217,19
1774418928.8038616,18
1774418928.8296509,17
1774418928.8383214,16
1774418928.8606038,16
1774418928.8698895,15
1774418928.892705,14
1774418928.9053211,13
1774418928.9246314,12
1774418928.9365673,12
1774418928.9594238,12
1774418928.9704504,16
1774418928.988702,22
1774418929.0049145,30
1774418929.0213869,40
1774418929.0370345,49
1774418929.0541146,58
1774418929.070478,64
1774418929.088909,67
1774418929.106101,67
1774418929.1217024,66
1774418929.1391919,65
1774418929.1628976,65
1774418929.173155,65
1774418929.191199,66
1774418929.2045376,67
1774418929.221157,68
1774418929.2372375,67
1774418929.2546024,67
1774418929.2714834,65
1774418929.2916903,63
1774418929.3077128,62
1774418929.3236587,60
1774418929.3389442,59
1774418929.3578153,58
1774418929.3718007,57
1774418929.3871713,56
1774418929.4059668,54
1774418929.4227428,52
1774418929.4419487,50
1774418929.4609704,47
1774418929.479797,45
1774418929.4921606,43
1774418929.513029,41
1774418929.5281606,40
1774418929.537332,38
1774418929.5547855,36
1774418929.578756,35
1774418929.5930305,34
1774418929.6050844,32
1774418929.6313643,31
1774418929.637103,30
1774418929.6584148,28
1774418929.6698525,27
1774418929.690467,26
1774418929.705792,25
1774418929.7219088,24
1774418929.7427154,22
1774418929.7551594,21
1774418929.774988,20
1774418929.7878215,19
1774418929.8045747,18
1774418929.8221078,17
1774418929.8368258,16
1774418929.8553689,15
1774418929.8711398,15
1774418929.8937938,14
1774418929.9059868,13
1774418929.9277256,12
1774418929.9406388,11
1774418929.956859,10
1774418929.9710624,10
1774418929.9879584,10
1774418930.0057266,14
1774418930.0248406,20
1774418930.0369072,28
1774418930.0564656,38
1774418930.0698004,47
1774418930.0874138,56
1774418930.104189,62
1774418930.1216104,65
1774418930.1377556,65
1774418930.1625683,64
1774418930.1701252,62
1774418930.193318,61
1774418930.2066138,61
1774418930.2223208,61
1774418930.2415292,62
1774418930.262197,62
1774418930.2704837,62
1774418930.2904603,61
1774418930.3046215,60
1774418930.325947,59
1774418930.3380907,58
1774418930.3544905,57
1774418930.3705533,56
1774418930.3875086,55
1774418930.403715,54
1774418930.421139,52
1774418930.4366944,50
1774418930.454637,48
1774418930.4719775,46
1774418930.4888098,44
1774418930.503621,42
1774418930.5209813,40
1774418930.5379767,40
1774418930.5548058,38
1774418930.570973,37
1774418930.5892737,36
1774418930.605809,34
1774418930.6239774,33
1774418930.6419878,32
1774418930.6543832,31
1774418930.6742578,30
1774418930.6873045,29
1774418930.7063375,28
1774418930.721354,27
1774418930.7374306,26
1774418930.7547739,25
1774418930.772348,24
1774418930.7867637,23
1774418930.8037763,22
1774418930.8202615,21
1774418930.8370755,20
1774418930.8546417,19
1774418930.8717945,19
1774418930.88837,18
1774418930.904335,17
1774418930.9209857,16
1774418930.9386044,15
1774418930.9555826,15
1774418930.970737,15
1774418930.987089,18
1774418931.00329,23
1774418931.0283039,31
1774418931.03841,40
1774418931.059309,49
1774418931.0721107,58
1774418931.0881028,65
1774418931.1035867,68
1774418931.1224732,69
1774418931.1406727,68
1774418931.1610699,67
1774418931.169935,66
1774418931.197898,65
1774418931.2113688,65
1774418931.2263293,66
1774418931.2416615,66
1774418931.2605827,66
1774418931.2711308,65
1774418931.2927814,64
1774418931.3034697,62
1774418931.3216028,61
1774418931.341577,61
1774418931.3555238,60
1774418931.3711455,59
1774418931.3890107,58
1774418931.406032,56
1774418931.421542,54
1774418931.4368894,52
1774418931.4539773,50
1774418931.470827,47
1774418931.4876287,45
1774418931.5038095,43
1774418931.5204973,41
1774418931.5381818,40
1774418931.5604634,39
1774418931.5795045,37
1774418931.5955935,36
1774418931.604559,34
1774418931.6220348,33
1774418931.6367204,32
1774418931.6595404,31
1774418931.6697628,30
1774418931.6905074,29
1774418931.7066457,28
1774418931.722747,26
1774418931.7363725,25
1774418931.7555983,24
1774418931.7796495,23
1774418931.787397,21
1774418931.804686,20
1774418931.82113,19
1774418931.840137,19
1774418931.8611987,18
1774418931.877783,17
1774418931.8960583,16
1774418931.9121523,15
1774418931.9255188,14
1774418931.9408567,13
1774418931.9611068,13
1774418931.9764624,15
1774418931.9920652,19
1774418932.0064974,27
1774418932.0203571,36
1774418932.0364494,45
1774418932.056464,56
1774418932.0697153,64
1774418932.0897915,68
1774418932.103599,70
1774418932.1204727,70
1774418932.1469884,69
1774418932.1581094,68
1774418932.1704226,68
1774418932.1876233,68
1774418932.2043967,69
1774418932.2206314,70
1774418932.2368236,70
1774418932.2534974,69
1774418932.2700703,68
1774418932.288287,66
1774418932.3036804,64
1774418932.323259,62
1774418932.3414,61
1774418932.3561122,60
1774418932.3732505,58
1774418932.3894389,57
1774418932.4037642,55
1774418932.4204116,53
1774418932.436398,51
1774418932.4564211,49
1774418932.469776,47
1774418932.489434,45
1774418932.5063245,42
1774418932.5229647,40
1774418932.5367155,39
1774418932.556402,38
1774418932.5723276,36
1774418932.5916119,34
1774418932.6121366,33
1774418932.6280897,31
1774418932.6387665,30
1774418932.655092,29
1774418932.6767654,27
1774418932.692421,26
1774418932.7059,25
1774418932.7243385,24
1774418932.7405095,22
1774418932.7552645,21
1774418932.7706916,20
1774418932.7869668,19
1774418932.8035433,18
1774418932.823263,17
1774418932.8382447,16
1774418932.860456,15
1774418932.8722925,14
1774418932.894153,13
1774418932.904622,12
1774418932.924074,11
1774418932.9376297,10
1774418932.9553387,9
1774418932.9717073,9
1774418932.995948,11
1774418933.0037138,16
1774418933.0306199,24
1774418933.0409763,33
1774418933.058304,42
1774418933.0730686,51
1774418933.0870178,58
1774418933.10417,62
1774418933.1200922,63
1774418933.1363945,62
1774418933.1597786,61
1774418933.17162,60
1774418933.1877117,60
1774418933.2046664,61
1774418933.2220995,61
1774418933.237866,62
1774418933.2596083,62
1774418933.2697096,61
1774418933.296155,60
1774418933.30576,58
1774418933.321619,56
1774418933.3391755,55
1774418933.3603497,53
1774418933.3761272,52
1774418933.3890743,51
1774418933.4056268,50
1774418933.4215136,48
1774418933.4369514,46
1774418933.4545367,44
1774418933.4712033,42
1774418933.4873128,40
1774418933.503245,38
1774418933.5287237,36
1774418933.5406003,35
1774418933.555236,33
1774418933.5703785,32
1774418933.5875618,30
1774418933.6048117,29
1774418933.6197054,28
1774418933.6368918,27
1774418933.653286,26
1774418933.6713662,25
1774418933.6870017,24
1774418933.7040937,23
1774418933.7209628,22
1774418933.7379012,20
1774418933.7591612,19
1774418933.77548,18
1774418933.79144,17
1774418933.8041406,16
1774418933.8227358,15
1774418933.8392522,14
1774418933.863499,14
1774418933.8729432,13
1774418933.8962293,12
1774418933.913061,11
1774418933.9278948,11
1774418933.9404743,10
1774418933.9610689,9
1774418933.9717004,9
1774418933.9870565,11
1774418934.0042036,15
1774418934.0221055,22
1774418934.0390723,30
1774418934.0577056,40
1774418934.0703347,48
1774418934.0930846,55
1774418934.1029751,59
1774418934.124144,60
1774418934.1404657,59
1774418934.1561556,58
1774418934.1723328,56
1774418934.1954274,56
1774418934.2073488,56
1774418934.2269375,56
1774418934.2395425,56
1774418934.2537332,56
1774418934.2711587,55
1774418934.2869449,54
1774418934.3037481,54
1774418934.3353362,53
1774418934.3477182,52
1774418934.3641,52
1774418934.3734784,51
1774418934.3916388,50
1774418934.4112566,49
1774418934.427954,47
1774418934.4395192,45
1774418934.4606788,43
1774418934.469572,41
1774418934.4905388,40
1774418934.502922,38
1774418934.5265446,37
1774418934.5386086,36
1774418934.5545046,34
1774418934.570579,33
1774418934.5923712,32
1774418934.6099007,31
1774418934.623979,30
1774418934.6461518,29
1774418934.658669,28
1774418934.6699116,27
1774418934.6878679,25
1774418934.70462,24
1774418934.7256024,23
1774418934.7410069,22
1774418934.7531137,21
1774418934.7761176,20
1774418934.7899363,19
1774418934.8033528,18
1774418934.8205135,17
1774418934.836776,16
1774418934.8540318,16
1774418934.869562,15
1774418934.8889802,14
1774418934.9040487,13
1774418934.9200587,13
1774418934.9365854,12
1774418934.9538786,12
1774418934.970582,14
1774418934.988862,18
1774418935.003255,26
1774418935.0224123,35
1774418935.0378382,44
1774418935.061718,53
1774418935.072304,61
1774418935.090386,65
1774418935.1050715,66
1774418935.120697,66
1774418935.1372843,65
1774418935.1545265,64
1774418935.1724005,64
1774418935.1875942,65
1774418935.2032664,66
1774418935.220218,67
1774418935.2363913,67
1774418935.2547648,66
1774418935.2713835,64
1774418935.2866154,62
1774418935.302864,60
1774418935.3287625,58
1774418935.3396924,57
1774418935.3545375,56
1774418935.369902,55
1774418935.3893728,54
1774418935.4087079,53
1774418935.4226153,51
1774418935.4400625,49
1774418935.4560869,47
1774418935.4718869,45
1774418935.488721,43
1774418935.5029273,41
1774418935.5212507,40
1774418935.5372963,38
1774418935.5575066,37
1774418935.5699303,35
1774418935.5864487,34
1774418935.605084,33
1774418935.6211185,31
1774418935.6371586,30
1774418935.6538758,29
1774418935.6695173,28
1774418935.6884685,26
1774418935.7041986,25
1774418935.7289093,24
1774418935.7408314,23
1774418935.7564013,22
1774418935.7703383,21
1774418935.7863498,19
1774418935.8043292,18
1774418935.8215723,17
1774418935.8385606,16
1774418935.8531563,15
1774418935.8714879,15
1774418935.8873198,14
1774418935.9091208,13
1774418935.9221854,12
1774418935.9375703,12
1774418935.9556863,11
1774418935.9714565,10
1774418935.9890275,10
1774418936.0040557,12
1774418936.0203178,17
1774418936.036774,24
1774418936.053471,33
1774418936.0695043,42
1774418936.0872996,51
1774418936.1041028,58
1774418936.1229582,63
1774418936.1373358,64
1774418936.1537604,64
1774418936.1710787,63
1774418936.1893046,62
1774418936.204865,62
1774418936.2198074,63
1774418936.2381384,64
1774418936.2545788,65
1774418936.269915,65
1774418936.2873075,63
1774418936.30591,62
1774418936.3227818,60
1774418936.3385446,58
1774418936.3551128,56
1774418936.3701127,55
1774418936.3886464,54
1774418936.4031703,53
1774418936.4212196,52
1774418936.4372265,50
1774418936.465955,48
1774418936.4694574,46
1774418936.4971538,44
1774418936.5027857,42
1774418936.5208576,40
1774418936.5365324,39
1774418936.558426,37
1774418936.5755818,36
1774418936.5899706,34
1774418936.604165,33
1774418936.6272464,32
1774418936.6400464,31
1774418936.6623237,30
1774418936.6798625,28
1774418936.690456,27
1774418936.7078598,26
1774418936.721551,25
1774418936.7386599,24
1774418936.7545757,22
1774418936.7719233,21
1774418936.78644,20
1774418936.8031387,19
1774418936.8259478,18
1774418936.836811,17
1774418936.8706057,16
1774418936.8706932,15
1774418936.8870873,15
1774418936.9112484,14
1774418936.9298396,13
1774418936.94624,13
1774418936.9648566,12
1774418936.9724994,12
1774418936.9882004,11
1774418937.0055683,11
1774418937.0229638,10
1774418937.0380516,10
1774418937.0572324,9
1774418937.0759249,9
1774418937.0885277,12
1774418937.1070917,17
1774418937.1204882,24
1774418937.13659,33
1774418937.160518,42
1774418937.1714544,51
1774418937.1881874,58
1774418937.2046783,62
1774418937.2314346,63
1774418937.237171,62
1774418937.2632873,60
1774418937.2719152,59
1774418937.2964685,58
1774418937.3070037,59
1774418937.328394,59
1774418937.3436503,60
1774418937.3565342,60
1774418937.371643,59
1774418937.3902912,58
1774418937.4077802,57
1774418937.42369,56
1774418937.438459,55
1774418937.4558527,55
1774418937.4706059,54
1774418937.4920673,53
1774418937.5038679,51
1774418937.5198865,50
1774418937.5364335,48
1774418937.553699,46
1774418937.5706573,44
1774418937.589231,42
1774418937.6061702,41
1774418937.6249292,40
1774418937.6418228,39
1774418937.662866,38
1774418937.669415,37
1774418937.6946049,36
1774418937.7062385,35
1774418937.7276995,34
1774418937.7373352,33
1774418937.7552028,31
1774418937.7699573,30
1774418937.7867036,29
1774418937.803537,28
1774418937.8201506,27
1774418937.8372796,26
1774418937.8539288,25
1774418937.870686,24
1774418937.8873951,23
1774418937.9032516,22
1774418937.9201016,21
1774418937.937577,21
1774418937.9538488,20
1774418937.9697535,19
1774418937.986336,18
1774418938.0046818,17
1774418938.020585,17
1774418938.0371647,16
1774418938.054237,16
1774418938.0693653,17
1774418938.0878057,22
1774418938.104304,29
1774418938.1208296,37
1774418938.1374562,46
1774418938.1527798,56
1774418938.1706457,63
1774418938.1865788,67
1774418938.2044146,69
1774418938.2205122,68
1774418938.2361424,67
1774418938.2536175,66
1774418938.270785,65
1774418938.288815,66
1774418938.3046331,67
1774418938.3209386,67
1774418938.3370957,67
1774418938.3546038,66
1774418938.3704758,65
1774418938.3876936,63
1774418938.4046836,61
1774418938.422727,60
1774418938.437066,58
1774418938.4617875,57
1774418938.4708517,56
1774418938.4866123,55
1774418938.5056272,53
1774418938.525512,51
1774418938.5362341,49
1774418938.5578258,47
1774418938.5709867,45
1774418938.5939722,43
1774418938.6054947,41
1774418938.6207373,40
1774418938.636884,39
1774418938.652829,37
1774418938.6697147,36
1774418938.6888955,34
1774418938.7053268,33
1774418938.7236743,32
1774418938.7369542,30
1774418938.753472,29
1774418938.7708097,28
1774418938.7864552,27
1774418938.8033187,25
1774418938.8209794,24
1774418938.8369539,23
1774418938.8537745,22
1774418938.8708477,21
1774418938.8871672,20
1774418938.9046383,19
1774418938.9238276,18
1774418938.9382124,17
1774418938.9560735,16
1774418938.9710639,15
1774418938.9885428,15
1774418939.0100527,14
1774418939.0209165,13
1774418939.0365,12
1774418939.0590541,12
1774418939.0727656,11
1774418939.0953517,12
1774418939.1052203,15
1774418939.1310582,22
1774418939.14319,30
1774418939.156982,40
1774418939.173368,49
1774418939.1899877,58
1774418939.2032807,64
1774418939.2201066,66
1774418939.237634,66
1774418939.258255,65
1774418939.2712815,64
1774418939.292044,63
1774418939.308228,63
1774418939.3235722,64
1774418939.3388712,65
1774418939.3543584,66
1774418939.37206,65
1774418939.3887408,64
1774418939.4033377,62
1774418939.4277391,60
1774418939.4437814,58
1774418939.455595,57
1774418939.472692,56
1774418939.4899552,54
1774418939.5053678,53
1774418939.529582,52
1774418939.5385811,50
1774418939.553467,48
1774418939.5717018,46
1774418939.591416,44
1774418939.603735,42
1774418939.6266062,40
1774418939.6366715,39
1774418939.6602242,37
1774418939.6692843,35
1774418939.6893146,34
1774418939.70711,33
1774418939.7226377,31
1774418939.7362618,30
1774418939.7532542,29
1774418939.770754,27
1774418939.7869902,26
1774418939.8028004,25
1774418939.8196845,24
1774418939.8381772,23
1774418939.8595,22
1774418939.8724246,20
1774418939.8951685,19
1774418939.907417,18
1774418939.9221196,17
1774418939.9370189,16
1774418939.962662,15
1774418939.9699485,15
1774418939.986096,14
1774418940.0028713,13
1774418940.025605,13
1774418940.0368528,12
1774418940.0576963,11
1774418940.0711422,10
1774418940.0971568,10
1774418940.1042523,9
1774418940.124224,10
1774418940.14052,14
1774418940.1617973,20
1774418940.169804,29
1774418940.1955125,38
1774418940.212785,46
1774418940.2298954,54
1774418940.237539,58
1774418940.2556715,60
1774418940.2760863,59
1774418940.291748,57
1774418940.309132,56
1774418940.3253925,55
1774418940.339969,56
1774418940.3595612,56
1774418940.373152,57
1774418940.3889508,57
1774418940.4040115,56
1774418940.4195926,55
1774418940.437406,53
1774418940.4568267,51
1774418940.4692488,50
1774418940.487305,49
1774418940.5061274,48
1774418940.524369,47
1774418940.5389524,46
1774418940.5562506,45
1774418940.5708408,43
1774418940.587841,41
1774418940.6081393,40
1774418940.6207879,39
1774418940.638709,37
1774418940.6539373,35
1774418940.67012,34
1774418940.6912405,33
1774418940.705183,31
1774418940.7237346,30
1774418940.7428916,29
1774418940.7577586,28
1774418940.7724786,27
1774418940.79039,26
1774418940.802999,26
1774418940.8207738,25
1774418940.8366475,24
1774418940.853805,23
1774418940.8699143,22
1774418940.8863466,21
1774418940.902561,20
1774418940.9220915,19
1774418940.941636,18
1774418940.9550977,17
1774418940.9696913,16
1774418940.9882927,15
1774418941.002958,15
1774418941.020192,14
1774418941.0359945,13
1774418941.053399,12
1774418941.0759296,12
1774418941.091656,11
1774418941.1045423,11
1774418941.1193688,14
1774418941.1396554,19
1774418941.1536453,26
1774418941.170507,35
1774418941.1873696,43
1774418941.2035203,51
1774418941.2199407,57
1774418941.2377193,59
1774418941.253702,59
1774418941.2692306,58
1774418941.2871,56
1774418941.3033745,55
1774418941.3205645,55
1774418941.3372116,56
1774418941.353738,56
1774418941.369632,56
1774418941.3872676,56
1774418941.403955,55
1774418941.420515,53
1774418941.4381437,51
1774418941.4538047,49
1774418941.470439,48
1774418941.4871655,47
1774418941.503997,47
1774418941.520704,46
1774418941.5375059,44
1774418941.55421,43
1774418941.570406,41
1774418941.5866375,40
1774418941.6027286,38
1774418941.6201646,37
1774418941.6368194,35
1774418941.6539013,34
1774418941.6691794,32
1774418941.6874907,31
1774418941.7039514,30
1774418941.7207391,29
1774418941.736862,28
1774418941.7538147,27
1774418941.7737854,26
1774418941.7885013,25
1774418941.8028371,24
1774418941.8195362,23
1774418941.8403368,22
1774418941.8548226,21
1774418941.8696127,20
1774418941.8868647,19
1774418941.902805,18
1774418941.9204214,17
1774418941.9402092,16
1774418941.9527755,16
1774418941.9724762,15
1774418941.9952424,15
1774418942.003789,14
1774418942.020327,13
1774418942.0372064,13
1774418942.0547736,12
1774418942.073465,11
1774418942.0889888,11
1774418942.10248,10
1774418942.120629,12
1774418942.1364164,16
1774418942.1541364,22
1774418942.1727622,30
1774418942.1868773,39
1774418942.2068853,47
1774418942.2228038,55
1774418942.239078,59
1774418942.2548828,60
1774418942.2708778,59
1774418942.288117,58
1774418942.3028,57
1774418942.3193853,56
1774418942.3388124,56
1774418942.3545547,57
1774418942.3705204,58
1774418942.3863535,58
1774418942.4036772,57
1774418942.4196584,56
1774418942.436249,54
1774418942.4531868,52
1774418942.469118,50
1774418942.491772,49
1774418942.503224,49
1774418942.5203376,48
1774418942.536194,47
1774418942.553473,46
1774418942.56968,44
1774418942.586726,42
1774418942.6037784,41
1774418942.6193583,40
1774418942.6383548,38
1774418942.652681,37
1774418942.6707902,35
1774418942.687447,34
1774418942.712926,33
1774418942.728787,31
1774418942.7412357,30
1774418942.757647,29
1774418942.769668,28
1774418942.786256,27
1774418942.8039277,26
1774418942.820832,26
1774418942.8365471,25
1774418942.8604033,24
1774418942.8691986,23
1774418942.8923643,22
1774418942.903178,21
1774418942.9205272,20
1774418942.9403868,19
1774418942.953708,18
1774418942.9696708,18
1774418942.9877596,17
1774418943.0042593,16
1774418943.020224,16
1774418943.036541,15
1774418943.0529213,14
1774418943.070158,14
1774418943.089646,13
1774418943.109274,13
1774418943.1235816,12
1774418943.1410673,11
1774418943.1554904,12
1774418943.172299,15
1774418943.1891382,21
1774418943.2057693,29
1774418943.2289624,38
1774418943.2385306,46
1774418943.2585175,54
1774418943.2691042,58
1774418943.288888,60
1774418943.3057797,59
1774418943.3209815,57
1774418943.3368042,56
1774418943.355179,55
1774418943.3690643,55
1774418943.39403,56
1774418943.4081364,56
1774418943.421611,57
1774418943.4452355,56
1774418943.4605236,55
1774418943.4725091,53
1774418943.495287,52
1774418943.502939,50
1774418943.524527,49
1774418943.5372846,48
1774418943.5614924,47
1774418943.57265,47
1774418943.5925255,45
1774418943.607868,44
1774418943.6226647,42
1774418943.638179,40
1774418943.6555848,40
1774418943.6690748,38
1774418943.6876059,37
1774418943.702394,36
1774418943.7211773,35
1774418943.7453265,34
1774418943.7551749,33
1774418943.7703032,32
1774418943.787672,31
1774418943.8052351,30
1774418943.8241584,29
1774418943.8371098,29
1774418943.8585663,28
1774418943.8788593,27
1774418943.8863568,26
1774418943.9092522,25
1774418943.9215035,24
1774418943.9408498,23
1774418943.9556139,22
1774418943.9740682,22
1774418943.990762,21
1774418944.0062726,20
1774418944.0225985,20
1774418944.0373735,19
1774418944.055081,19
1774418944.0696652,18
1774418944.0875516,18
1774418944.10287,17
1774418944.1194108,16
1774418944.139591,16
1774418944.1598773,17
1774418944.1722813,21
1774418944.1885765,28
1774418944.2086248,36
1774418944.221128,44
1774418944.2369914,52
1774418944.26059,58
1774418944.2722328,61
1774418944.2860885,61
1774418944.31092,60
1774418944.3232238,58
1774418944.3411534,56
1774418944.3577595,55
1774418944.3728054,55
1774418944.3956032,55
1774418944.4045308,56
1774418944.4208546,55
1774418944.4368339,55
1774418944.4537373,53
1774418944.469391,52
1774418944.4992392,51
1774418944.5153477,50
1774418944.5297747,49
1774418944.5466657,49
1774418944.5630932,48
1774418944.5798855,46
1774418944.59069,45
1774418944.6118338,43
1774418944.6268349,41
1774418944.6451547,40
1774418944.658974,39
1774418944.6748388,38
1774418944.686103,36
1774418944.7024045,35
1774418944.7226079,34
1774418944.7371578,33
1774418944.7540855,32
1774418944.774539,31
1774418944.7863233,30
1774418944.8047054,29
1774418944.8205843,29
1774418944.8391948,28
1774418944.8559809,27
1774418944.870905,26
1774418944.8929148,25
1774418944.9023128,24
1774418944.9239519,23
1774418944.9375463,22
1774418944.9528062,21
1774418944.973401,20
1774418944.9910345,19
1774418945.004216,18
1774418945.021187,18
1774418945.037774,17
1774418945.0562055,17
1774418945.0731204,16
1774418945.0902443,16
1774418945.1050594,15
1774418945.1249268,15
1774418945.139866,16
1774418945.1618366,19
1774418945.169566,26
1774418945.191611,34
1774418945.2053614,42
1774418945.22216,51
1774418945.2371314,59
1774418945.2593665,63
1774418945.2689803,64
1774418945.2882316,64
1774418945.307133,62
1774418945.3265643,61
1774418945.342712,60
1774418945.3591542,61
1774418945.3709033,62
1774418945.3896148,62
1774418945.4049218,63
1774418945.421707,62
1774418945.4377885,60
1774418945.454712,59
1774418945.4796846,57
1774418945.4858153,55
1774418945.5055628,54
1774418945.5289814,54
1774418945.5415237,53
1774418945.5555005,52
1774418945.572931,51
1774418945.59057,49
1774418945.6054275,48
1774418945.625076,46
1774418945.6380253,44
1774418945.6587372,42
1774418945.6689742,41
1774418945.6953967,40
1774418945.7068226,39
1774418945.7215395,38
1774418945.7381742,37
1774418945.7558317,36
1774418945.770368,34
1774418945.7864552,33
1774418945.8029997,32
1774418945.8235183,31
1774418945.84208,30
1774418945.8614383,29
1774418945.872548,28
1774418945.8866715,27
1774418945.9051366,26
1774418945.9208136,25
1774418945.9407005,24
1774418945.956946,23
1774418945.972812,22
1774418945.993007,21
1774418946.0047114,20
1774418946.0302165,20
1774418946.0436347,19
1774418946.0566354,18
1774418946.0689352,17
1774418946.0933464,17
1774418946.103846,16
1774418946.129656,15
1774418946.1462436,15
1774418946.1558938,17
1774418946.176277,21
1774418946.196016,28
1774418946.2069185,37
1774418946.2315147,45
1774418946.236796,54
1774418946.2610915,61
1774418946.2793908,64
1774418946.2925591,65
1774418946.3066978,64
1774418946.3297656,62
1774418946.341435,61
1774418946.3630304,61
1774418946.37093,61
1774418946.3985424,62
1774418946.404666,63
1774418946.4225738,63
1774418946.436539,62
1774418946.4538908,61
1774418946.4689062,59
1774418946.4865248,57
1774418946.5025306,56
1774418946.519792,55
1774418946.536906,55
1774418946.5535347,54
1774418946.5690098,53
1774418946.593215,51
1774418946.6079,50
1774418946.6247332,48
1774418946.6478097,46
1774418946.6601043,45
1774418946.678453,43
1774418946.6901739,41
1774418946.709454,40
1774418946.7267652,39
1774418946.738404,38
1774418946.7586854,37
1774418946.7720466,36
1774418946.7904932,35
1774418946.8027532,34
1774418946.8210764,33
1774418946.8385866,32
1774418946.862817,31
1774418946.8705723,30
1774418946.8870268,29
1774418946.9024525,28
1774418946.926562,27
1774418946.9403954,27
1774418946.9629316,26
1774418946.969437,25
1774418946.9966807,24
1774418947.008456,24
1774418947.0214243,23
1774418947.038736,22
1774418947.0527706,21
1774418947.0727117,20
1774418947.0898154,19
1774418947.1091282,19
1774418947.1298294,18
1774418947.1406326,20
1774418947.158593,23
1774418947.1703253,29
1774418947.1908498,38
1774418947.2025535,45
1774418947.2222097,54
1774418947.2383597,61
1774418947.2581384,65
1774418947.2695017,66
1774418947.2866511,64
1774418947.3094516,63
1774418947.3225737,61
1774418947.3454583,60
1774418947.3587856,60
1774418947.3697114,60
1774418947.3929532,61
1774418947.4135604,61
1774418947.4288647,60
1774418947.4444237,59
1774418947.4606633,57
1774418947.4794486,56
1774418947.4925823,56
1774418947.5050187,55
1774418947.5283303,55
1774418947.5416894,54
1774418947.5552366,53
1774418947.569695,51
1774418947.5977998,49
1774418947.6112206,47
1774418947.624523,45
1774418947.6366892,44
1774418947.6537206,42
1774418947.6689696,41
1774418947.6883554,40
1774418947.7116563,39
1774418947.719845,38
1774418947.7444754,37
1774418947.7629569,36
1774418947.7693355,35
1774418947.7861319,34
1774418947.802497,33
1774418947.8227608,32
1774418947.840164,31
1774418947.8589933,30
1774418947.8756456,29
1774418947.8912907,28
1774418947.9070013,27
1774418947.9232073,26
1774418947.9393961,26
1774418947.9541345,25
1774418947.970217,24
1774418947.9856317,23
1774418948.0044115,23
1774418948.01974,22
1774418948.0357428,22
1774418948.0572252,21
1774418948.0732498,20
1774418948.0962787,19
1774418948.105432,19
1774418948.1274939,20
1774418948.1389627,25
1774418948.157695,31
1774418948.1762245,40
1774418948.1898358,49
1774418948.205671,58
1774418948.225871,65
1774418948.241126,69
1774418948.2539852,70
1774418948.2726488,70
1774418948.2923398,68
1774418948.302219,68
1774418948.3288794,68
1774418948.3368075,69
1774418948.3533363,70
1774418948.3729544,71
1774418948.3913429,71
1774418948.4049463,71
1774418948.4214733,69
1774418948.4370224,67
1774418948.4630682,65
1774418948.471435,63
1774418948.4871516,62
1774418948.5043395,61
1774418948.5317414,60
1774418948.5378118,59
1774418948.5623705,58
1774418948.5718143,56
1774418948.5911274,54
1774418948.6052961,52
1774418948.6222548,51
1774418948.6383724,49
1774418948.657242,47
1774418948.669757,46
1774418948.6911116,44
1774418948.7073526,43
1774418948.7304502,41
1774418948.7441354,40
1774418948.7628758,40
1774418948.7726667,39
1774418948.7862816,37
1774418948.8040185,36
1774418948.8223512,35
1774418948.8379962,34
1774418948.8565063,33
1774418948.868785,32
1774418948.89233,31
1774418948.908724,29
1774418948.924785,28
1774418948.9369245,27
1774418948.9570162,26
1774418948.98095,25
1774418948.9888287,24
1774418949.0047626,24
1774418949.0258949,23
1774418949.0361993,22
1774418949.0534198,22
1774418949.0727882,21
1774418949.089461,20
1774418949.1101015,19
1774418949.132743,18
1774418949.1407127,18
1774418949.1629214,21
1774418949.171542,25
1774418949.1956441,32
1774418949.2059243,40
1774418949.2263634,50
1774418949.236651,58
1774418949.2526026,65
1774418949.26879,68
1774418949.2957044,69
1774418949.3095708,68
1774418949.32376,67
1774418949.3389955,66
1774418949.3546524,66
1774418949.3689005,67
1774418949.3939693,69
1774418949.407491,69
1774418949.4207852,69
1774418949.4356842,67
1774418949.4540112,65
1774418949.470744,63
1774418949.4891129,61
1774418949.5103323,59
1774418949.525922,58
1774418949.5400958,57
1774418949.5602221,56
1774418949.5736883,55
1774418949.5911005,54
1774418949.6046429,52
1774418949.620814,50
1774418949.6366174,48
1774418949.6607964,46
1774418949.668721,44
1774418949.6887174,42
1774418949.7020984,40
1774418949.719675,40
1774418949.7377863,38
1774418949.762166,37
1774418949.7687662,36
1774418949.7858875,35
1774418949.802314,33
1774418949.829555,32
1774418949.8404524,31
1774418949.8607395,30
1774418949.880034,29
1774418949.8906567,28
1774418949.9125445,27
1774418949.9242616,25
1774418949.9434898,24
1774418949.9549253,23
1774418949.9725876,22
1774418949.992806,22
1774418950.0045822,21
1774418950.028798,20
1774418950.0370083,19
1774418950.0525393,19
1774418950.0699909,18
1774418950.0884066,17
1774418950.1048322,17
1774418950.1243997,16
1774418950.1408932,15
1774418950.1527283,16
1774418950.1706827,18
1774418950.1993594,23
1774418950.2055624,31
1774418950.2256813,39
1774418950.2420614,47
1774418950.2628243,55
1774418950.2763302,60
1774418950.295078,63
1774418950.313003,62
1774418950.3246098,60
1774418950.3411572,59
1774418950.363874,58
1774418950.37102,58
1774418950.3901298,58
1774418950.4051156,59
1774418950.4220757,59
1774418950.4366388,58
1774418950.4523566,57
1774418950.46869,56
1774418950.4966214,54
1774418950.511795,53
1774418950.5202677,52
1774418950.5396411,52
1774418950.5645435,51
1774418950.579487,50
1774418950.5965993,48
1774418950.6121488,47
1774418950.623696,45
1774418950.6389787,43
1774418950.6602817,42
1774418950.6796734,40
1774418950.6912065,40
1774418950.70751,38
1774418950.7244852,37
1774418950.738584,36
1774418950.75248,35
1774418950.7714138,34
1774418950.787582,33
1774418950.8030674,32
1774418950.8206553,31
1774418950.838152,30
1774418950.8578424,29
1774418950.8688364,28
1774418950.8914092,27
1774418950.9073334,26
1774418950.9244435,25
1774418950.9378872,24
1774418950.9608264,23
1774418950.9713194,23
1774418950.993212,22
1774418951.0089607,21
1774418951.026138,21
1774418951.0416687,20
1774418951.0582848,19
1774418951.074175,18
1774418951.0873141,17
1774418951.1096275,17
1774418951.1225758,17
1774418951.1390734,18
1774418951.1526792,23
1774418951.175066,30
1774418951.1901941,38
1774418951.205994,47
1774418951.2209692,55
1774418951.236922,62
1774418951.2631242,65
1774418951.2691746,66
1774418951.2919703,64
1774418951.301977,63
1774418951.3246336,62
1774418951.3372755,62
1774418951.3588328,62
1774418951.3746724,63
1774418951.387873,64
1774418951.4053166,63
1774418951.4219527,62
1774418951.4371252,61
1774418951.452394,59
1774418951.474089,57
1774418951.492829,56
1774418951.508166,55
1774418951.524842,54
1774418951.537211,53
1774418951.5605316,52
1774418951.5726743,50
1774418951.5865319,49
1774418951.6110008,47
1774418951.6220326,45
1774418951.6368842,43
1774418951.658522,41
1774418951.668694,40
1774418951.6903937,39
1774418951.7103279,37
1774418951.7197673,36
1774418951.7377303,35
1774418951.7536037,34
1774418951.7695436,33
1774418951.7856178,32
1774418951.803823,31
1774418951.8191388,30
1774418951.8420637,28
1774418951.859162,27
1774418951.8745651,26
1774418951.8944933,25
1774418951.9092228,24
1774418951.9195137,23
1774418951.939969,22
1774418951.9618852,21
1774418951.9726071,20
1774418951.9909046,19
1774418952.009126,18
1774418952.0334187,17
1774418952.0366106,17
1774418952.0583777,16
1774418952.072957,15
1774418952.0963044,14
1774418952.105316,14
1774418952.1204276,13
1774418952.140098,14
1774418952.155307,18
1774418952.1714678,24
1774418952.193933,32
1774418952.2019186,40
1774418952.228571,50
1774418952.2384627,57
1774418952.2615714,62
1774418952.273228,63
1774418952.294743,62
1774418952.3124442,61
1774418952.3280506,59
1774418952.3438897,58
1774418952.3603957,58
1774418952.3761816,59
1774418952.397287,60
1774418952.4045572,60
1774418952.424394,60
1774418952.437005,58
1774418952.45628,56
1774418952.4712505,54
1774418952.4898653,52
1774418952.504008,51
1774418952.5200343,50
1774418952.53583,49
1774418952.5521052,48
1774418952.5756977,47
1774418952.594504,45
1774418952.6099539,44
1774418952.6190088,42
1774418952.6438878,40
1774418952.6563203,39
1774418952.6773536,37
1774418952.6901965,36
1774418952.703551,34
1774418952.726083,33
1774418952.7435398,31
1774418952.7558064,30
1774418952.7711275,29
1774418952.7908525,28
1774418952.8024008,27
1774418952.8189034,26
1774418952.8368297,25
1774418952.8576977,24
1774418952.871318,23
1774418952.8899422,22
1774418952.9034126,21
1774418952.9192607,20
1774418952.93538,19
1774418952.9611487,18
1774418952.971721,17
1774418952.991641,16
1774418953.0052528,15
1774418953.019393,15
1774418953.0396354,14
1774418953.0608745,14
1774418953.0783565,13
1774418953.091714,13
1774418953.1089141,12
1774418953.1247227,11
1774418953.1435978,10
1774418953.1567001,10
1774418953.177735,10
1774418953.1910536,13
1774418953.2054403,19
1774418953.2221165,27
1774418953.2368536,36
1774418953.2556133,44
1774418953.268561,52
1774418953.286216,57
1774418953.3022377,58
1774418953.319472,57
1774418953.339099,55
1774418953.356541,53
1774418953.3711193,52
1774418953.385731,52
1774418953.4070292,53
1774418953.4190607,53
1774418953.4375138,54
1774418953.456601,53
1774418953.4702325,52
1774418953.492343,50
1774418953.5086014,49
1774418953.5244918,47
1774418953.53546,46
1774418953.557744,46
1774418953.572032,45
1774418953.591712,44
1774418953.604196,43
1774418953.6200373,41
1774418953.6357555,40
1774418953.6630177,39
1774418953.6691287,37
1774418953.6893194,36
1774418953.7018442,34
1774418953.7202668,33
1774418953.7389603,31
1774418953.7586305,30
1774418953.7685618,29
1774418953.7875297,28
1774418953.8032963,27
1774418953.8208969,27
1774418953.8390727,26
1774418953.857353,25
1774418953.8705823,24
1774418953.8880553,23
1774418953.9047372,23
1774418953.9227736,22
1774418953.9370635,21
1774418953.9577298,20
1774418953.9728692,19
1774418953.9934323,18
1774418954.003159,17
1774418954.0232677,16
1774418954.0421617,15
1774418954.0605028,15
1774418954.0687213,14
1774418954.0862005,14
1774418954.1020987,13
1774418954.11967,13
1774418954.146422,12
1774418954.1612678,12
1774418954.17151,11
1774418954.1868792,11
1774418954.2028916,12
1774418954.2207634,15
1774418954.2408144,22
1774418954.254123,30
1774418954.270058,39
1774418954.2909236,47
1774418954.3021667,54
1774418954.3270314,57
1774418954.3364294,58
1774418954.3528495,57
1774418954.3705082,54
1774418954.3976088,52
1774418954.4054947,50
1774418954.4271603,50
1774418954.4369724,50
1774418954.45712,50
1774418954.4712896,50
1774418954.4903457,50
1774418954.502901,49
1774418954.5255287,48
1774418954.539658,47
1774418954.5554368,47
1774418954.5713823,47
1774418954.590113,46
1774418954.6018074,45
1774418954.618642,44
1774418954.6391346,43
1774418954.660775,41
1774418954.6747355,40
1774418954.692853,39
1774418954.7031803,37
1774418954.7201715,36
1774418954.7398262,35
1774418954.7526815,33
1774418954.7726476,32
1774418954.7866335,31
1774418954.8027549,30
1774418954.820927,29
1774418954.8383062,28
1774418954.8563097,28
1774418954.8685558,27
1774418954.8884492,26
1774418954.901782,25
1774418954.9233167,25
1774418954.9370487,24
1774418954.9591045,23
1774418954.9765108,22
1774418954.9862924,21
1774418955.0087516,20
1774418955.0234187,20
1774418955.0380716,19
1774418955.0629346,18
1774418955.0797927,18
1774418955.0930455,17
1774418955.1071637,17
1774418955.1205838,16
1774418955.1428497,15
1774418955.1589606,15
1774418955.1717315,15
1774418955.189755,17
1774418955.2066622,22
1774418955.2225559,29
1774418955.2367964,38
1774418955.2530365,47
1774418955.268948,56
1774418955.2908447,62
1774418955.3079333,65
1774418955.3208463,66
1774418955.336427,64
1774418955.3611152,62
1774418955.3727615,60
1774418955.3883717,60
1774418955.409128,60
1774418955.4275792,61
1774418955.4382603,61
1774418955.4598818,62
1774418955.4721107,61
1774418955.491521,60
1774418955.5027516,58
1774418955.5223753,56
1774418955.5383272,55
1774418955.5564601,54
1774418955.5705712,53
1774418955.5884233,53
1774418955.6037085,52
1774418955.6255634,50
1774418955.6368842,49
1774418955.6599967,47
1774418955.6691318,45
1774418955.6937275,43
1774418955.7025843,42
1774418955.7235441,40
1774418955.7415955,39
1774418955.7590334,38
1774418955.7703488,37
1774418955.7917,35
1774418955.8023367,34
1774418955.822524,33
1774418955.8473995,32
1774418955.8595648,32
1774418955.8724136,31
1774418955.8940432,30
1774418955.904158,29
1774418955.9244182,28
1774418955.9477415,27
1774418955.9614253,26
1774418955.9697015,25
1774418955.9904144,24
1774418956.00477,23
1774418956.0268345,22
1774418956.0366452,22
1774418956.0618143,21
1774418956.0738332,20
1774418956.088853,20
1774418956.102633,19
1774418956.1261728,18
1774418956.1355724,18
1774418956.1584015,17
1774418956.174177,17
1774418956.1866262,19
1774418956.2070198,25
1774418956.2223947,32
1774418956.2394512,40
1774418956.253526,50
1774418956.2707448,59
1774418956.2875218,65
1774418956.3096247,68
1774418956.324902,68
1774418956.3415463,66
1774418956.354733,64
1774418956.3762167,62
1774418956.3916428,62
1774418956.4098892,62
1774418956.421838,63
1774418956.4395394,63
1774418956.4581525,63
1774418956.4696379,62
1774418956.4891782,61
1774418956.5053453,59
1774418956.5201478,57
1774418956.538152,56
1774418956.558024,55
1774418956.5753236,54
1774418956.587103,53
1774418956.6065857,52
1774418956.6285286,50
1774418956.6377234,48
1774418956.6607437,46
1774418956.6752634,45
1774418956.6865036,43
1774418956.7023118,41
1774418956.7245843,40
1774418956.7355287,39
1774418956.7555306,38
1774418956.774423,36
1774418956.7934074,36
1774418956.8081431,34
1774418956.819461,33
1774418956.838267,32
1774418956.8556063,31
1774418956.8728244,30
1774418956.8960953,28
1774418956.9027257,27
1774418956.9252198,26
1774418956.9386864,25
1774418956.9518397,24
1774418956.973539,23
1774418956.9962804,22
1774418957.0048542,21
1774418957.030067,20
1774418957.0456927,20
1774418957.0607908,19
1774418957.0723975,18
1774418957.0924418,18
1774418957.1096137,17
1774418957.124615,16
1774418957.1407313,16
1774418957.1538975,15
1774418957.1715152,15
1774418957.1886826,16
1774418957.204138,20
1774418957.2296922,26
1774418957.236819,34
1774418957.255411,42
1774418957.2688227,51
1774418957.2952042,58
1774418957.3085382,62
1774418957.3225832,62
1774418957.3399937,61
1774418957.3585472,59
1774418957.3733523,56
1774418957.3962808,55
1774418957.4057605,55
1774418957.4209983,55
1774418957.4431179,55
1774418957.4603493,55
1774418957.4762502,54
1774418957.4923685,53
1774418957.5082517,52
1774418957.5212698,51
1774418957.5402596,50
1774418957.5575128,49
1774418957.5722973,49
1774418957.5913475,48
1774418957.602635,47
1774418957.6211126,46
1774418957.6379468,44
1774418957.662983,42
1774418957.6683946,40
1774418957.6884549,39
1774418957.7038264,38
1774418957.7303965,36
1774418957.7353718,35
1774418957.7529714,34
1774418957.7792969,33
1774418957.7870164,32
1774418957.8019288,31
1774418957.8192868,30
1774418957.8386607,30
1774418957.8532724,29
1774418957.8712375,28
1774418957.8886204,28
1774418957.9070072,27
1774418957.9231942,26
1774418957.9392087,25
1774418957.9552743,24
1774418957.9703643,23
1774418957.9897554,22
1774418958.0083961,21
1774418958.0193102,21
1774418958.0357382,20
1774418958.058721,20
1774418958.0683064,19
1774418958.091458,18
1774418958.1016347,17
1774418958.1204212,17
1774418958.1435275,18
1774418958.1567686,21
1774418958.1719284,26
1774418958.186478,34
1774418958.2066085,42
1774418958.2258039,51
1774418958.2419379,58
1774418958.257183,63
1774418958.2767766,64
1774418958.287839,63
1774418958.3041291,61
1774418958.3237543,59
1774418958.335423,58
1774418958.352551,57
1774418958.3695507,58
1774418958.3887324,58
1774418958.4058177,59
1774418958.4255612,58
1774418958.4384093,57
1774418958.460647,55
1774418958.471554,54
1774418958.490117,53
1774418958.5016804,52
1774418958.5263634,51
1774418958.540142,50
1774418958.5569792,49
1774418958.5690613,48
1774418958.5900712,46
1774418958.602044,44
1774418958.6222618,42
1774418958.6430824,40
1774418958.652588,39
1774418958.6720588,38
1774418958.6896574,36
1774418958.7091107,35
1774418958.7201798,34
1774418958.74043,33
1774418958.7567146,32
1774418958.7716224,31
1774418958.7903824,30
1774418958.8027356,30
1774418958.8186734,29
1774418958.8372507,28
1774418958.8573515,27
1774418958.8686185,26
1774418958.8901615,25
1774418958.9070883,24
1774418958.9234283,23
1774418958.9348907,23
1774418958.953769,22
1774418958.9710329,21
1774418958.9920475,20
1774418959.0028994,19
1774418959.0185559,19
1774418959.0385833,18
1774418959.059964,18
1774418959.0713868,17
1774418959.086898,17
1774418959.1028352,16
1774418959.1246612,15
1774418959.1366656,16
1774418959.1579921,18
1774418959.175576,23
1774418959.1863844,31
1774418959.2045262,40
1774418959.2240398,48
1774418959.235794,57
1774418959.2520583,63
1774418959.2717814,66
1774418959.2911878,66
1774418959.304018,65
1774418959.320155,63
1774418959.335707,62
1774418959.3523257,61
1774418959.374751,62
1774418959.3907852,63
1774418959.4082124,64
1774418959.4214249,64
1774418959.437865,63
1774418959.4603832,61
1774418959.476906,59
1774418959.4865074,58
1774418959.508069,56
1774418959.519663,55
1774418959.5356963,54
1774418959.5569005,54
1774418959.5721903,52
1774418959.5888896,51
1774418959.6048703,49
1774418959.6206837,48
1774418959.6368942,46
1774418959.653835,44
1774418959.6682508,42
1774418959.6859384,40
1774418959.713773,40
1774418959.731418,38
1774418959.7476673,37
1774418959.7607648,36
1774418959.779157,35
1774418959.7941873,34
1774418959.802957,33
1774418959.8189821,32
1774418959.8357346,31
1774418959.8592224,30
1774418959.8750207,29
1774418959.8901074,28
1774418959.9064128,27
1774418959.9237914,26
1774418959.9371006,25
1774418959.9542868,24
1774418959.9744916,23
1774418959.991448,22
1774418960.0046527,21
1774418960.0183704,21
1774418960.0434036,20
1774418960.0628216,20
1774418960.0731566,19
1774418960.0943375,18
1774418960.1038535,18
1774418960.1218174,17
1774418960.1370819,16
1774418960.1602764,15
1774418960.1716151,15
1774418960.1941524,16
1774418960.2095792,20
1774418960.2262404,27
1774418960.2365088,35
1774418960.2581837,44
1774418960.2715223,54
1774418960.2917578,62
1774418960.3044908,66
1774418960.327497,68
1774418960.3457308,67
1774418960.3543522,65
1774418960.37166,63
1774418960.3869207,62
1774418960.402806,63
1774418960.4210057,63
1774418960.4377909,64
1774418960.4580474,65
1774418960.4705648,64
1774418960.4942203,63
1774418960.5023923,62
1774418960.5300865,60
1774418960.5348365,59
1774418960.5572073,58
1774418960.5755491,57
1774418960.5920286,56
1774418960.6014562,55
1774418960.621822,53
1774418960.643556,52
1774418960.6521826,50
1774418960.6759853,48
1774418960.6858249,46
1774418960.7081769,45
1774418960.7191925,43
1774418960.740223,41
1774418960.7590108,40
1774418960.7693737,39
1774418960.7900786,38
1774418960.8020682,37
1774418960.8193362,36
1774418960.8364034,36
1774418960.861012,35
1774418960.8696775,34
1774418960.8892474,33
1774418960.9014752,32
1774418960.9184692,31
1774418960.9401855,30
1774418960.9567487,29
1774418960.9726655,28
1774418960.9877627,27
1774418961.0067601,26
1774418961.028595,25
1774418961.0353994,24
1774418961.0528681,24
1774418961.068841,23
1774418961.0928278,23
1774418961.105278,22
1774418961.1272426,21
1774418961.1407924,21
1774418961.156564,20
1774418961.1790369,20
1774418961.1951199,20
1774418961.2049897,23
1774418961.226798,28
1774418961.2366495,36
1774418961.2588336,44
1774418961.272342,54
1774418961.2880132,63
1774418961.3038878,69
1774418961.319375,71
1774418961.3393247,71
1774418961.3545687,70
1774418961.3681185,67
1774418961.3869202,66
1774418961.4032207,65
1774418961.4261189,65
1774418961.434784,65
1774418961.4598594,65
1774418961.4754179,65
1774418961.4930196,65
1774418961.5132198,64
1774418961.527542,63
1774418961.539873,62
1774418961.556106,61
1774418961.5773487,61
1774418961.5905821,60
1774418961.606903,59
1774418961.6227083,57
1774418961.6360767,55
1774418961.6572087,53
1774418961.6689758,51
1774418961.6892085,49
1774418961.7014587,47
1774418961.722625,46
1774418961.7378354,44
1774418961.753251,43
1774418961.7682638,41
1774418961.7883098,40
1774418961.8014436,40
1774418961.8207588,39
1774418961.8351839,38
1774418961.857862,37
1774418961.8764236,36
1774418961.8889818,35
1774418961.9039476,34
1774418961.919339,33
1774418961.9460843,31
1774418961.957162,30
1774418961.9760585,29
1774418961.9887779,28
1774418962.007496,26
1774418962.0226264,25
1774418962.0379124,24
1774418962.0536408,24
1774418962.0686245,23
1774418962.0854306,22
1774418962.1014316,22
1774418962.1195545,21
1774418962.1369467,20
1774418962.1520433,19
1774418962.1764264,19
1774418962.1919832,18
1774418962.2058291,20
1774418962.221198,25
1774418962.242951,32
1774418962.2594836,41
1774418962.2763655,52
1774418962.2874951,62
1774418962.305384,71
1774418962.3242855,76
1774418962.3403184,79
1774418962.3563035,78
1774418962.3762426,77
1774418962.3884234,75
1774418962.4025872,75
1774418962.4298148,75
1774418962.4356287,76
1774418962.4556992,78
1774418962.4686897,78
1774418962.487967,78
1774418962.5013373,77
1774418962.5188086,76
1774418962.5394752,74
1774418962.555719,73
1774418962.5757427,71
1774418962.5905824,70
1774418962.607773,69
1774418962.6277409,68
1774418962.6386428,67
1774418962.6570122,65
1774418962.6708016,63
1774418962.691943,60
1774418962.7073445,58
1774418962.723804,56
1774418962.739975,54
1774418962.760495,52
1774418962.7761605,50
1774418962.788287,48
1774418962.8029683,46
1774418962.819151,45
1774418962.8354247,43
1774418962.8531106,41
1774418962.868244,40
1774418962.8937607,40
1774418962.9016361,39
1774418962.9262614,37
1774418962.940568,36
1774418962.9615355,35
1774418962.9706373,33
1774418962.9860964,32
1774418963.0033467,31
1774418963.027843,29
1774418963.0363016,28
1774418963.0528486,27
1774418963.0766273,26
1774418963.0904334,25
1774418963.1049037,24
1774418963.12354,23
1774418963.1384184,22
1774418963.161868,21
1774418963.1702876,21
1774418963.1861846,20
1774418963.2022982,19
1774418963.2207134,19
1774418963.2375915,23
1774418963.2542374,29
1774418963.2724526,38
1774418963.2963564,48
1774418963.3013906,59
1774418963.3291352,69
1774418963.3349106,76
1774418963.3628983,79
1774418963.37514,80
1774418963.3901806,79
1774418963.4100697,77
1774418963.4194553,76
1774418963.439136,76
1774418963.4555988,76
1774418963.471463,77
1774418963.4887524,77
1774418963.5067465,77
1774418963.5267062,76
1774418963.5356624,75
1774418963.5539553,73
1774418963.573343,72
1774418963.5909436,70
1774418963.602882,69
1774418963.6206017,68
1774418963.635966,66
1774418963.656562,65
1774418963.6691587,63
1774418963.6874678,61
1774418963.701333,58
1774418963.7269917,56
1774418963.7354066,53
1774418963.7591586,51
1774418963.77108,49
1774418963.78705,47
1774418963.8070316,45
1774418963.8186805,44
1774418963.8355935,42
1774418963.858492,41
1774418963.8709893,40
1774418963.8870852,39
1774418963.9028792,38
1774418963.9190748,36
1774418963.9438643,35
1774418963.9587545,34
1774418963.9702826,32
1774418963.9891083,31
1774418964.0130036,29
1774418964.0212452,28
1774418964.0370595,27
1774418964.0567558,25
1774418964.0681796,24
1774418964.0908678,23
1774418964.1013088,22
1774418964.1270049,21
1774418964.1356914,20
1774418964.155487,19
1774418964.1720366,18
1774418964.190956,17
1774418964.2029128,16
1774418964.2257948,15
1774418964.2380896,15
1774418964.2540398,18
1774418964.2701046,23
1774418964.2855964,31
1774418964.3020976,40
1774418964.3195348,51
1774418964.3403,62
1774418964.361981,71
1774418964.3795116,75
1774418964.3905592,77
1774418964.4036005,76
1774418964.4228969,74
1774418964.4371927,72
1774418964.4542258,71
1774418964.4710581,71
1774418964.492204,71
1774418964.5015686,72
1774418964.5260997,72
1774418964.539517,71
1774418964.5528097,71
1774418964.5731041,70
1774418964.5881631,69
1774418964.6086051,68
1774418964.621257,67
1774418964.6381464,67
1774418964.6539776,65
1774418964.6771731,64
1774418964.6924932,62
1774418964.7033653,59
1774418964.724229,57
1774418964.740064,55
1774418964.7536836,52
1774418964.7686136,50
1774418964.788142,48
1774418964.8017766,46
1774418964.8189409,45
1774418964.8387096,43
1774418964.8586853,42
1774418964.871412,41
1774418964.8881414,40
1774418964.901266,39
1774418964.922576,38
1774418964.9361825,36
1774418964.9559772,35
1774418964.9707348,34
1774418964.9866128,33
1774418965.0020497,31
1774418965.024928,30
1774418965.0414848,29
1774418965.0585713,28
1774418965.0796723,27
1774418965.0935843,26
1774418965.1077664,25
1774418965.1254878,23
1774418965.1368897,22
1774418965.1600442,21
1774418965.1716409,20
1774418965.18853,20
1774418965.2070732,23
1774418965.2216806,28
1774418965.2387958,37
1774418965.2572079,47
1774418965.2695522,59
1774418965.2897162,70
1774418965.3012102,78
1774418965.3220236,83
1774418965.3362663,85
1774418965.362378,84
1774418965.367848,83
1774418965.3878243,81
1774418965.405094,80
1774418965.421523,81
1774418965.4421482,81
1774418965.459116,82
1774418965.4701777,82
1774418965.4862697,81
1774418965.5051281,80
1774418965.5256202,79
1774418965.544142,78
1774418965.5587914,76
1774418965.5716927,75
1774418965.588604,74
1774418965.605602,73
1774418965.6240768,71
1774418965.6402843,68
1774418965.6561525,53
1774418965.6713078,51
1774418965.69426,50
1774418965.701191,49
1774418965.7198417,47
1774418965.735735,46
1774418965.7541165,45
1774418965.767893,44
1774418965.7901268,43
1774418965.8012886,42
1774418965.8195796,41
1774418965.8366005,40
1774418965.8545833,40
1774418965.87026,40
1774418965.8924797,39
1774418965.9022794,38
1774418965.9256897,38
1774418965.9417233,37
1774418965.9568799,36
1774418965.9728217,36
1774418965.9888687,35
1774418966.0049005,34
1774418966.0208604,34
1774418966.0367804,33
1774418966.059214,33
1774418966.0686562,32
1774418966.0851295,31
1774418966.1012435,31
1774418966.1233447,30
1774418966.138653,30
1774418966.159362,31
1774418966.1760767,34
1774418966.1870403,39
1774418966.2128,43
1774418966.225684,50
1774418966.2371395,55
1774418966.2534602,60
1774418966.272873,63
1774418966.2860026,64
1774418966.3024812,64
1774418966.325009,63
1774418966.3401053,63
1774418966.3569717,63
1774418966.371937,64
1774418966.3882356,64
1774418966.4115903,65
1774418966.4212642,65
1774418966.436452,64
1774418966.4572935,63
1774418966.4684448,62
1774418966.4869092,61
1774418966.5013547,60
1774418966.5220163,59
1774418966.5354521,59
1774418966.5613823,58
1774418966.5702522,57
1774418966.5909092,56
1774418966.6068277,54
1774418966.627334,53
1774418966.6434603,51
1774418966.6554415,50
1774418966.6699328,48
1774418966.687868,47
1774418966.7074242,46
1774418966.7225904,45
1774418966.73497,43
1774418966.75449,42
1774418966.774769,41
1774418966.7905674,40
1774418966.8037632,40
1774418966.818839,39
1774418966.8356621,38
1774418966.8523917,37
1774418966.8710485,37
1774418966.8891382,36
1774418966.901245,35
1774418966.9287517,34
1774418966.936192,33
1774418966.9608188,32
1774418966.9748654,32
1774418966.9863527,31
1774418967.0056405,30
1774418967.0253801,30
1774418967.0351472,29
1774418967.055338,28
1774418967.0738597,27
1774418967.0899482,27
1774418967.105808,26
1774418967.1197243,26
1774418967.1375809,28
1774418967.1541536,31
1774418967.1698909,35
1774418967.1918986,40
1774418967.2094865,46
1774418967.2205634,51
1774418967.2481053,54
1774418967.2532904,56
1774418967.2686505,57
1774418967.2909315,57
1774418967.3022845,56
1774418967.3207855,56
1774418967.337359,56
1774418967.354789,56
1774418967.3732646,56
1774418967.3939748,56
1774418967.401141,56
1774418967.4189606,55
1774418967.4409263,54
1774418967.455632,53
1774418967.4723947,52
1774418967.4890785,51
1774418967.5050092,50
1774418967.5204704,49
1774418967.537134,48
1774418967.5531318,47
1774418967.569162,46
1774418967.5884647,45
1774418967.6071649,44
1774418967.6209555,42
1774418967.6467836,41
1774418967.6606247,40
1774418967.667955,39
1774418967.692482,38
1774418967.7034445,37
1774418967.7290049,36
1774418967.736828,35
1774418967.7556164,34
1774418967.7715843,34
1774418967.7922275,33
1774418967.8061304,32
1774418967.8181014,31
1774418967.835213,31
1774418967.8514245,30
1774418967.8734312,29
1774418967.886536,28
1774418967.9044304,28
1774418967.9202693,27
1774418967.9362996,26
1774418967.957979,26
1774418967.9694593,25
1774418967.9856453,25
1774418968.0071795,24
1774418968.0206287,24
1774418968.0351727,23
1774418968.0520332,23
1774418968.0677917,22
1774418968.0922153,22
1774418968.1010616,21
1774418968.1258955,21
1774418968.1443195,23
1774418968.156379,26
1774418968.1742907,30
1774418968.189011,35
1774418968.2052553,40
1774418968.2231395,44
1774418968.2399588,47
1774418968.2541027,49
1774418968.2717419,50
1774418968.2911615,49
1774418968.3030744,48
1774418968.3244562,56
1774418968.3393228,55
1774418968.3521035,56
1774418968.3686218,56
1774418968.3892727,56
1774418968.4029953,56
1774418968.4205997,54
1774418968.4354956,53
1774418968.4521065,52
1774418968.4694839,50
1774418968.4895053,49
1774418968.501029,49
1774418968.5274594,48
1774418968.5366626,47
1774418968.5563505,45
1774418968.5746374,43
1774418968.5863104,41
1774418968.604628,40
1774418968.6230612,38
1774418968.6346693,36
1774418968.6541302,34
1774418968.6693118,32
1774418968.6888018,31
1774418968.7021892,29
1774418968.720507,28
1774418968.7369938,27
1774418968.756868,26
1774418968.7778795,25
1774418968.789889,24
1774418968.8030605,23
1774418968.8188558,21
1774418968.8359966,20
1774418968.8538873,19
1774418968.8766723,18
1774418968.8865116,17
1774418968.903898,15
1774418968.9259431,14
1774418968.9420242,13
1774418968.9581022,12
1774418968.9715846,11
1774418968.9906933,10
1774418969.0132325,9
1774418969.0211093,8
1774418969.039149,8
1774418969.0546207,8
1774418969.0683174,10
1774418969.0877826,14
1774418969.1128585,22
1774418969.1266572,31
1774418969.1458325,40
1774418969.1581287,50
1774418969.1743264,58
1774418969.1878183,62
1774418969.2025163,64
1774418969.2211108,63
1774418969.2357085,62
1774418969.2550752,61
1774418969.2709486,61
1774418969.2906928,61
1774418969.3009744,62
1774418969.3228126,62
1774418969.3349626,62
1774418969.3534505,60
1774418969.3711307,59
1774418969.3869789,57
1774418969.4064481,55
1774418969.4187686,53
1774418969.442252,52
1774418969.4546041,51
1774418969.4754639,50
1774418969.4931715,49
1774418969.5046206,47
1774418969.5269532,45
1774418969.5406542,43
1774418969.556022,40
1774418969.5706897,39
1774418969.5886142,37
1774418969.6080852,35
1774418969.6212819,34
1774418969.6361718,32
1774418969.6527836,31
1774418969.6699564,29
1774418969.6868527,28
1774418969.700973,27
1774418969.7199755,26
1774418969.73767,24
1774418969.7534668,23
1774418969.77306,22
1774418969.7887506,21
1774418969.8023334,19
1774418969.819225,18
1774418969.8350909,17
1774418969.8574028,16
1774418969.87424,15
1774418969.8949652,14
1774418969.9033902,13
1774418969.9302106,12
1774418969.9382074,11
1774418969.9612446,11
1774418969.9746952,10
1774418969.9914222,9
1774418970.0040548,8
1774418970.0212247,8
1774418970.0510662,8
1774418970.0527086,10
1774418970.07218,16
1774418970.088998,24
1774418970.1009603,33
1774418970.1275072,43
1774418970.1362665,53
1774418970.1521437,60
1774418970.1729372,64
1774418970.1920393,66
1774418970.2009974,65
1774418970.2218509,64
1774418970.2408755,64
1774418970.2564404,64
1774418970.2720344,65
1774418970.290158,66
1774418970.3123055,67
1774418970.3212705,66
1774418970.338513,65
1774418970.3584769,63
1774418970.3693743,60
1774418970.3887777,58
1774418970.409967,57
1774418970.4236875,55
1774418970.4375415,54
1774418970.458959,53
1774418970.4690099,52
1774418970.4892883,50
1774418970.5009153,48
1774418970.5183306,45
1774418970.5358157,43
1774418970.5517683,41
1774418970.5679266,40
1774418970.5906978,38
1774418970.6076193,36
1774418970.6295412,35
1774418970.637452,33
1774418970.6590526,31
1774418970.6762738,30
1774418970.6949103,28
1774418970.7059605,27
1774418970.721067,25
1774418970.7362034,24
1774418970.75625,23
1774418970.7703118,22
1774418970.791196,20
1774418970.8075514,19
1774418970.8188984,18
1774418970.8370335,17
1774418970.8530755,15
1774418970.8680954,14
1774418970.8870833,13
1774418970.9009032,13
1774418970.9295664,12
1774418970.936529,11
1774418970.9539666,10
1774418970.977607,9
1774418970.995552,9
1774418971.003743,8
1774418971.0275414,7
1774418971.0435052,7
1774418971.059663,9
1774418971.0714743,13
1774418971.0865302,21
1774418971.1077507,30
1774418971.1283453,40
1774418971.141559,48
1774418971.159903,56
1774418971.1786509,60
1774418971.1878302,61
1774418971.2036178,60
1774418971.2195718,58
1774418971.2464542,57
1774418971.2515974,57
1774418971.2712681,58
1774418971.2877798,58
1774418971.3019345,58
1774418971.332024,58
1774418971.3383052,57
1774418971.3573194,55
1774418971.3775327,53
1774418971.389134,51
1774418971.4016736,50
1774418971.4200125,49
1774418971.4365807,48
1774418971.4591663,47
1774418971.475416,45
1774418971.4843905,44
1774418971.5065625,42
1774418971.5176885,40
1774418971.5373101,39
1774418971.5544834,37
1774418971.5758655,35
1774418971.5865042,33
1774418971.6023078,32
1774418971.6182723,30
1774418971.6352115,29
1774418971.6536522,28
1774418971.6733878,27
1774418971.6924064,26
1774418971.701445,25
1774418971.7221127,24
1774418971.734195,23
1774418971.7588294,22
1774418971.7693925,21
1774418971.791502,20
1774418971.8102336,19
1774418971.8182697,18
1774418971.8403375,18
1774418971.8561378,17
1774418971.8688698,16
1774418971.8928225,15
1774418971.9037957,14
1774418971.9290354,13
1774418971.935843,12
1774418971.9565718,11
1774418971.968485,10
1774418971.9890811,11
1774418972.002097,14
1774418972.01867,20
1774418972.0377114,28
1774418972.0540268,38
1774418972.0738122,46
1774418972.0948305,54
1774418972.1016083,59
1774418972.1210558,61
1774418972.1426995,61
1774418972.157037,59
1774418972.1694071,57
1774418972.1864307,56
1774418972.2054255,56
1774418972.2217445,57
1774418972.2377818,57
1774418972.2528324,57
1774418972.2700572,56
1774418972.2910697,54
1774418972.3127522,52
1774418972.3188283,50
1774418972.3360775,49
1774418972.3569596,48
1774418972.3720305,47
1774418972.3885393,46
1774418972.4103234,45
1774418972.4207983,44
1774418972.439577,42
1774418972.454143,40
1774418972.471928,39
1774418972.4875913,36
1774418972.5036366,35
1774418972.5218596,33
1774418972.5377543,31
1774418972.5555985,30
1774418972.5697927,28
1774418972.585862,27
1774418972.6019142,26
1774418972.617897,25
1774418972.6350093,24
1774418972.6625597,23
1774418972.6694038,22
1774418972.6961815,21
1774418972.7038465,20
1774418972.7300253,19
1774418972.7410846,18
1774418972.7509842,17
1774418972.7726054,16
1774418972.7900114,15
1774418972.8037908,14
1774418972.820296,13
1774418972.8350623,12
1774418972.8541496,11
1774418972.870781,11
1774418972.887779,10
1774418972.9007802,9
1774418972.9247913,8
1774418972.9345837,8
1774418972.9509387,9
1774418972.9787776,14
1774418972.9894626,20
1774418973.0067368,30
1774418973.0258503,40
1774418973.0344546,48
1774418973.0530903,56
1774418973.0757806,60
1774418973.0917125,62
1774418973.1055546,61
1774418973.1246502,60
1774418973.1354327,59
1774418973.1587806,58
1774418973.174766,58
1774418973.1850767,59
1774418973.2046125,60
1774418973.22243,60
1774418973.2370863,59
1774418973.2534919,57
1774418973.2683291,55
1774418973.2865016,53
1774418973.3014615,51
1774418973.3185956,49
1774418973.334083,48
1774418973.3663595,47
1774418973.3674207,46
1774418973.3960993,45
1774418973.408465,43
1774418973.42404,41
1774418973.4390168,40
1774418973.462482,38
1774418973.4712493,36
1774418973.4902408,34
1774418973.5061986,33
1774418973.5243108,31
1774418973.5424132,29
1774418973.5559382,28
1774418973.5733514,26
1774418973.5889075,25
1774418973.6027455,24
1774418973.6216066,23
1774418973.643779,22
1774418973.653038,21
1774418973.6694963,20
1774418973.687147,19
1774418973.7008328,18
1774418973.72335,17
1774418973.734064,16
1774418973.7650747,15
1774418973.7713997,14
1774418973.7862453,13
1774418973.8019817,12
1774418973.8182921,11
1774418973.8361802,11
1774418973.8555992,10
1774418973.8717914,9
1774418973.886667,8
1774418973.9081233,7
1774418973.9217432,7
1774418973.936172,8
1774418973.9565103,12
1774418973.9712481,19
1774418973.9884844,28
1774418974.0032723,37
1774418974.0193715,46
1774418974.040329,53
1774418974.05268,57
1774418974.0751219,58
1774418974.0912786,57
1774418974.1007931,55
1774418974.1276987,54
1774418974.142302,53
1774418974.1536145,53
1774418974.173142,53
1774418974.1944537,54
1774418974.2018807,53
1774418974.2211022,53
1774418974.2414029,51
1774418974.2580662,49
1774418974.2816088,48
1774418974.2903662,46
1774418974.3007972,45
1774418974.3244436,44
1774418974.3413239,44
1774418974.3596046,43
1774418974.3712916,41
1774418974.3853822,40
1774418974.401383,39
1774418974.4174714,37
1774418974.4355996,35
1774418974.4581847,34
1774418974.4722345,32
1774418974.4900858,31
1774418974.5019896,29
1774418974.526368,28
1774418974.5410783,27
1774418974.5604584,26
1774418974.5761485,25
1774418974.5918365,24
1774418974.6085176,24
1774418974.620734,23
1774418974.6387236,22
1774418974.6557307,21
1774418974.6687675,20
1774418974.6874843,19
1774418974.7047808,19
1774418974.7189558,18
1774418974.73461,17
1774418974.752072,16
1774418974.7762706,15
1774418974.7872596,14
1774418974.8018844,14
1774418974.8185837,13
1774418974.8343687,12
1774418974.851454,12
1774418974.8683248,13
1774418974.885155,17
1774418974.9061596,23
1774418974.9254231,32
1774418974.9342067,40
1774418974.9548466,49
1774418974.9713037,56
1774418974.9860873,60
1774418975.0016708,61
1774418975.0189457,60
1774418975.0405037,57
1774418975.0531158,55
1774418975.0692747,54
1774418975.090605,53
1774418975.1110604,53
1774418975.12197,53
1774418975.1377974,53
1774418975.157408,52
1774418975.1718194,51
1774418975.1880457,50
1774418975.2069998,49
1774418975.219454,48
1774418975.2398298,47
1774418975.258524,47
1774418975.2751677,46
1774418975.2859194,45
1774418975.3014538,43
1774418975.321685,41
1774418975.3363917,40
1774418975.3541398,38
1774418975.3701856,36
1774418975.3910997,35
1774418975.4031649,33
1774418975.4211166,32
1774418975.4365828,31
1774418975.451356,30
1774418975.471248,29
1774418975.490319,28
1774418975.50509,27
1774418975.525126,26
1774418975.5450368,25
1774418975.5550265,24
1774418975.568227,23
1774418975.5852373,22
1774418975.605507,21
1774418975.6225214,20
1774418975.639343,19
1774418975.6526458,19
1774418975.671504,18
1774418975.6865423,17
1774418975.7031634,16
1774418975.71929,15
1774418975.734159,15
1774418975.76159,14
1774418975.7738357,13
1774418975.7876294,12
1774418975.808015,12
1774418975.8182151,12
1774418975.836194,16
1774418975.8518748,22
1774418975.8674524,30
1774418975.8929105,40
1774418975.9091294,49
1774418975.9193058,58
1774418975.9393678,64
1774418975.9514549,66
1774418975.9726853,66
1774418975.9887605,64
1774418976.004684,62
1774418976.0204923,60
1774418976.0344236,60
1774418976.0522199,60
1774418976.0748417,61
1774418976.0853293,62
1774418976.1101983,61
1774418976.1227274,60
1774418976.1388018,58
1774418976.1541739,56
1774418976.1700451,55
1774418976.1947038,53
1774418976.2078078,52
1774418976.2257152,51
1774418976.23901,50
1774418976.2582402,49
1774418976.2697234,48
1774418976.2896564,46
1774418976.3077834,44
1774418976.3237045,42
1774418976.342319,40
1774418976.3567932,39
1774418976.372479,38
1774418976.38914,36
1774418976.4030793,34
1774418976.4173336,33
1774418976.4371438,32
1774418976.4607425,31
1774418976.4748726,29
1774418976.486293,28
1774418976.5055542,27
1774418976.526579,26
1774418976.5349374,25
1774418976.5609443,24
1774418976.568026,23
1774418976.592125,22
1774418976.6080756,20
1774418976.624345,19
1774418976.640059,18
1774418976.6550791,17
1774418976.6712568,17
1774418976.6894772,16
1774418976.7128935,15
1774418976.725026,14
1774418976.7356021,13
1774418976.7525165,13
1774418976.7719295,12
1774418976.7932434,11
1774418976.8069503,11
1774418976.8187363,13
1774418976.8357024,18
1774418976.8533046,25
1774418976.8725946,34
1774418976.89104,43
1774418976.9066885,52
1774418976.9208944,59
1774418976.9378662,62
1774418976.9579577,63
1774418976.9672332,61
1774418976.9892423,59
1774418977.0047288,57
1774418977.025781,56
1774418977.0352182,56
1774418977.0523725,56
1774418977.0740755,56
1774418977.084226,56
1774418977.1122081,55
1774418977.1296172,53
1774418977.138528,51
1774418977.160924,49
1774418977.1677265,48
1774418977.1900163,47
1774418977.2102442,46
1774418977.22092,45
1774418977.2401063,44
1774418977.252506,43
1774418977.2753122,41
1774418977.2871442,40
1774418977.3118896,38
1774418977.3237314,36
1774418977.33561,34
1774418977.3526447,32
1774418977.3684382,31
1774418977.3848588,30
1774418977.4036086,28
1774418977.4277465,27
1774418977.4344442,26
1774418977.455803,26
1774418977.4731498,25
1774418977.4855745,24
1774418977.5059612,23
1774418977.524718,23
1774418977.5411108,22
1774418977.55447,21
1774418977.568185,20
1774418977.5905979,19
1774418977.6062074,18
1774418977.6216638,17
1774418977.6406643,16
1774418977.6525464,16
1774418977.6728468,15
1774418977.6844964,14
1774418977.7021716,13
1774418977.7233841,12
1774418977.735365,12
1774418977.7527385,11
1774418977.773084,11
1774418977.795021,13
1774418977.8007882,18
1774418977.8173668,25
1774418977.8346655,34
1774418977.8588486,42
1774418977.8727546,51
1774418977.8924947,57
1774418977.9095888,59
1774418977.928568,59
1774418977.9355667,57
1774418977.9514365,54
1774418977.973989,51
1774418977.9878173,50
1774418978.0086675,49
1774418978.021196,49
1774418978.0395298,49
1774418978.055686,48
1774418978.0726116,48
1774418978.084976,47
1774418978.1036704,46
1774418978.121728,46
1774418978.1338537,45
1774418978.1567159,45
1774418978.170712,45
1774418978.1948285,44
1774418978.2022927,42
1774418978.2251086,41
1774418978.2399902,40
1774418978.2543726,38
1774418978.2731595,36
1774418978.2925398,35
1774418978.3047905,33
1774418978.3236346,32
1774418978.3410285,31
1774418978.3560355,30
1774418978.3730793,29
1774418978.3884811,28
1774418978.4034038,28
1774418978.4210453,27
1774418978.4356196,26
1774418978.4510581,25
1774418978.4755962,25
1774418978.4876606,24
1774418978.5013642,23
1774418978.522464,22
1774418978.5338168,21
1774418978.5515797,20
1774418978.574777,19
1774418978.5887406,18
1774418978.60048,17
1774418978.6252275,16
1774418978.6416738,15
1774418978.6609793,15
1774418978.6778228,14
1774418978.6890109,16
1774418978.700679,20
1774418978.7247913,27
1774418978.7361891,35
1774418978.7529824,44
1774418978.7691824,53
1774418978.7876186,61
1774418978.8068082,65
1774418978.8174217,66
1774418978.8344219,64
1774418978.8515785,62
1774418978.8711069,60
1774418978.8906116,58
1774418978.9080706,58
1774418978.9201014,58
1774418978.9403927,59
1774418978.9547215,59
1774418978.9678442,58
1774418978.9840183,57
1774418979.005321,55
1774418979.0220902,54
1774418979.0402033,52
1774418979.0587387,51
1774418979.072258,51
1774418979.088199,50
1774418979.10102,49
1774418979.1215153,47
1774418979.1411026,46
1774418979.1527,44
1774418979.171236,42
1774418979.1842425,40
1774418979.208797,39
1774418979.2212791,38
1774418979.2387838,36
1774418979.2547245,35
1774418979.2709587,33
1774418979.2845638,32
1774418979.3070035,31
1774418979.3195086,30
1774418979.3338015,29
1774418979.3535438,29
1774418979.375597,28
1774418979.3915937,27
1774418979.4076543,26
1774418979.422833,25
1774418979.4396074,24
1774418979.4564333,23
1774418979.4723132,22
1774418979.4845648,21
1774418979.5046928,20
1774418979.5240068,19
1774418979.5356777,18
1774418979.5517588,17
1774418979.572808,16
1774418979.590202,16
1774418979.6103177,15
1774418979.6204877,15
1774418979.6416278,16
1774418979.6537712,20
1774418979.6712418,27
1774418979.684714,35
1774418979.7022989,44
1774418979.7170842,54
1774418979.738814,62
1774418979.7597678,66
1774418979.7680163,67
1774418979.790858,67
1774418979.8041587,65
1774418979.8204267,63
1774418979.8342955,62
1774418979.8532398,61
1774418979.8797202,62
1774418979.8876004,63
1774418979.9056716,63
1774418979.9212759,62
1774418979.9352493,61
1774418979.9506211,59
1774418979.9795997,58
1774418979.9885027,56
1774418980.0103009,55
1774418980.02069,54
1774418980.0424607,53
1774418980.0545635,52
1774418980.0709283,50
1774418980.084461,49
1774418980.108882,47
1774418980.118001,45
1774418980.1412177,43
1774418980.1561987,41
1774418980.1670427,40
1774418980.1882668,38
1774418980.202833,36
1774418980.2186313,35
1774418980.2364025,34
1774418980.2515113,32
1774418980.2735133,32
1774418980.292528,31
1774418980.3061266,30
1774418980.3178358,29
1774418980.3402555,28
1774418980.3581724,27
1774418980.3711102,26
1774418980.3865788,25
1774418980.402926,24
1774418980.4215403,22
1774418980.443544,21
1774418980.4530718,20
1774418980.4701202,19
1774418980.4849882,18
1774418980.5014138,17
1774418980.5206077,16
1774418980.5354435,15
1774418980.5561552,14
1774418980.5707016,14
1774418980.5875607,13
1774418980.6054354,13
1774418980.6179144,15
1774418980.6356351,20
1774418980.65253,28
1774418980.6700985,37
1774418980.6840954,45
1774418980.7021194,54
1774418980.7230043,59
1774418980.7387633,62
1774418980.757653,62
1774418980.7725418,60
1774418980.7913878,58
1774418980.8027499,56
1774418980.8178601,55
1774418980.8349788,55
1774418980.8587017,55
1774418980.8705227,55
1774418980.8896453,55
1774418980.9028287,54
1774418980.917039,52
1774418980.9369738,51
1774418980.958143,49
1774418980.9698172,48
1774418980.9923825,47
1774418981.0006258,47
1774418981.0187688,46
1774418981.0432787,44
1774418981.0579486,43
1774418981.068933,41
1774418981.088784,40
1774418981.1027496,38
1774418981.1243732,37
1774418981.1398795,35
1774418981.155563,33
1774418981.1691132,32
1774418981.1909628,31
1774418981.2068074,30
1774418981.2228646,29
1774418981.236936,28
1774418981.2541518,27
1774418981.2689073,26
1774418981.285012,25
1774418981.3048422,24
1774418981.3169715,23
1774418981.334705,22
1774418981.3562245,21
1774418981.370102,20
1774418981.3881483,20
1774418981.4033241,19
1774418981.421372,18
1774418981.4361098,17
1774418981.459495,17
1774418981.4774702,16
1774418981.4928348,15
1774418981.5018709,14
1774418981.51979,14
1774418981.540914,14
1774418981.5511441,15
1774418981.5745058,20
1774418981.5888293,26
1774418981.6036463,34
1774418981.6192968,42
1774418981.6386678,50
1774418981.654236,56
1774418981.6702464,58
1774418981.6860301,58
1774418981.7146404,56
1774418981.71797,53
1774418981.744801,51
1774418981.76343,50
1774418981.7760017,49
1774418981.7875395,49
1774418981.8042755,48
1774418981.818346,48
1774418981.8386264,47
1774418981.8604553,47
1774418981.8673642,46
1774418981.8925366,45
1774418981.909411,45
1774418981.925499,45
1774418981.941517,44
1774418981.953052,43
1774418981.9733973,41
1774418981.9896867,40
1774418982.0078835,39
1774418982.0215876,37
1774418982.037471,35
1774418982.0524,33
1774418982.0690682,32
1774418982.0856676,31
1774418982.1021,30
1774418982.117305,29
1774418982.1397085,29
1774418982.1549475,28
1774418982.1796503,28
1774418982.1924253,27
1774418982.2081473,26
1774418982.2196548,26
1774418982.2461154,25
1774418982.2615786,25
1774418982.271662,24
1774418982.2935286,24
1774418982.3070223,23
1774418982.3256369,22
1774418982.3403957,21
1774418982.3564534,20
1774418982.3714573,20
1774418982.3883827,19
1774418982.400656,18
1774418982.4206524,19
1774418982.4353943,23
1774418982.4549286,29
1774418982.474285,37
1774418982.4838324,45
1774418982.5036993,54
1774418982.5176208,61
1774418982.5396802,64
1774418982.5632024,65
1774418982.5792315,64
1774418982.5911915,62
1774418982.6028545,60
1774418982.6262283,59
1774418982.6358268,59
1774418982.651135,59
1774418982.6796339,60
1774418982.6858206,59
1774418982.7062247,58
1774418982.7253652,57
1774418982.742708,55
1774418982.7538183,54
1774418982.769647,53
1774418982.7858436,52
1774418982.8024683,51
1774418982.8178835,51
1774418982.8336518,50
1774418982.8572748,48
1774418982.8695302,46
1774418982.8870497,45
1774418982.9090028,43
1774418982.9168994,41
1774418982.9339538,40
1774418982.9510696,39
1774418982.9705915,37
1774418982.9851377,36
1774418983.0063903,35
1774418983.02379,34
1774418983.037819,33
1774418983.055798,32
1774418983.0713503,31
1774418983.085953,31
1774418983.1031656,30
1774418983.1182292,29
1774418983.1376503,28
1774418983.1572793,27
1774418983.1762924,26
1774418983.1883085,25
1774418983.2130945,25
1774418983.22105,24
1774418983.236177,23
1774418983.2525032,22
1774418983.2788265,21
1774418983.2845478,20
1774418983.3003266,21
1774418983.3182259,23
1774418983.3389423,29
1774418983.3532417,37
1774418983.3677673,44
1774418983.3922646,53
1774418983.4021828,61
1774418983.4249816,65
1774418983.4417944,67
1774418983.4534802,67
1774418983.4698167,65
1774418983.4847012,63
1774418983.503978,62
1774418983.518066,62
1774418983.5392528,63
1774418983.5505693,63
1774418983.5685441,63
1774418983.5848517,62
1774418983.6012151,60
1774418983.621606,58
1774418983.6409519,56
1774418983.6587112,54
1774418983.6727536,53
1774418983.6888914,52
1774418983.710613,51
1774418983.7187314,50
1774418983.73904,49
1774418983.7550619,47
1774418983.7710142,46
1774418983.79096,44
1774418983.8030856,42
1774418983.817917,40
1774418983.8354673,39
1774418983.8546426,38
1774418983.8685389,36
1774418983.886807,35
1774418983.9110372,34
1774418983.9257383,33
1774418983.9370322,31
1774418983.9572105,30
1774418983.9746907,29
1774418983.9883995,28
1774418984.0102055,27
1774418984.0206552,26
1774418984.0378938,25
1774418984.0548844,24
1774418984.0690253,23
1774418984.0870173,22
1774418984.1047897,22
1774418984.1206336,21
1774418984.1362176,20
1774418984.1508806,19
1774418984.1694696,18
1774418984.1853378,17
1774418984.2007515,16
1774418984.2287335,16
1774418984.235936,17
1774418984.2541046,21
1774418984.271469,28
1774418984.2923036,36
1774418984.310054,44
1774418984.3232088,52
1774418984.3435397,58
1774418984.3555841,61
1774418984.3694797,61
1774418984.3892152,60
1774418984.4076037,58
1774418984.4205346,57
1774418984.4402778,56
1774418984.4553149,56
1774418984.4680192,56
1774418984.484448,56
1774418984.5035603,56
1774418984.5173414,54
1774418984.5356052,52
1774418984.5577993,50
1774418984.566801,49
1774418984.5899265,47
1774418984.604822,46
1774418984.6244068,45
1774418984.6421916,45
1774418984.6537204,44
1774418984.6713119,42
1774418984.687327,41
1774418984.7057016,40
1774418984.7205079,38
1774418984.7342272,36
1774418984.7563715,35
1774418984.7736197,33
1774418984.7866309,32
1774418984.8137572,31
1774418984.8218067,29
1774418984.835421,29
1774418984.8520682,28
1774418984.869642,27
1774418984.885636,26
1774418984.90192,25
1774418984.9177327,25
1774418984.9482825,24
1774418984.950102,23
1774418984.9812298,22
1774418984.9976397,21
1774418985.0111651,20
1774418985.0203779,19
1774418985.036928,19
1774418985.059119,18
1774418985.0681612,17
1774418985.0846882,17
1774418985.1090665,16
1774418985.1232312,15
1774418985.1402216,15
1774418985.156227,14
1774418985.1722338,16
1774418985.1866302,20
1774418985.204473,27
1774418985.2203445,35
1774418985.2355263,42
