timestamp,bvp
1774421414.3826005,40
1774421414.3992991,40
1774421414.4159305,39
1774421414.4325588,38
1774421414.449265,37
1774421414.4659243,35
1774421414.4826136,34
1774421414.4992297,32
1774421414.515915,31
1774421414.532607,29
1774421414.5492504,28
1774421414.5659528,27
1774421414.5826256,26
1774421414.599235,25
1774421414.616017,24
1774421414.632696,23
1774421414.650009,23
1774421414.6659524,23
1774421414.682808,24
1774421414.6994932,28
1774421414.7161577,33
1774421414.7336829,40
1774421414.749593,47
1774421414.7664416,56
1774421414.7828212,63
1774421414.799873,68
1774421414.816173,71
1774421414.83292,71
1774421414.849784,70
1774421414.8662813,68
1774421414.882831,65
1774421414.8997853,62
1774421414.9162564,59
1774421414.9330878,56
1774421414.9499106,53
1774421414.9663637,50
1774421414.9829674,48
1774421414.9996703,45
1774421415.0167239,44
1774421415.0328896,42
1774421415.049881,41
1774421415.0659719,41
1774421415.0837634,40
1774421415.0997605,40
1774421415.1164649,40
1774421415.1330922,39
1774421415.1580772,37
1774421415.1757555,36
1774421415.1916704,34
1774421415.199416,33
1774421415.2162263,31
1774421415.233032,30
1774421415.249721,28
1774421415.266573,27
1774421415.282992,26
1774421415.2996614,25
1774421415.3161926,24
1774421415.3328753,23
1774421415.3497508,23
1774421415.3663728,22
1774421415.3830962,22
1774421415.401764,21
1774421415.4162452,21
1774421415.4329114,22
1774421415.4496448,25
1774421415.4664288,30
1774421415.4828863,37
1774421415.499503,44
1774421415.5163991,53
1774421415.532746,60
1774421415.54954,66
1774421415.566494,69
1774421415.5827398,70
1774421415.5996132,69
1774421415.6167634,67
1774421415.6329591,64
1774421415.6498883,61
1774421415.6662247,58
1774421415.682813,55
1774421415.7003405,52
1774421415.717036,49
1774421415.7344124,46
1774421415.749451,44
1774421415.7681656,42
1774421415.7829568,41
1774421415.799684,40
1774421415.8164535,40
1774421415.832886,40
1774421415.8497212,39
1774421415.8660703,39
1774421415.8829193,38
1774421415.8994427,37
1774421415.916226,35
1774421415.933293,34
1774421415.949596,32
1774421415.9663687,31
1774421415.9844835,29
1774421415.999578,28
1774421416.0170963,27
1774421416.0339367,26
1774421416.0496697,24
1774421416.0677805,24
1774421416.0836043,23
1774421416.0995905,22
1774421416.1180718,22
1774421416.1330793,21
1774421416.1497595,21
1774421416.1664724,21
1774421416.1831994,22
1774421416.1996787,25
1774421416.2163599,30
1774421416.2328653,37
1774421416.2497532,44
1774421416.2658832,52
1774421416.2827513,59
1774421416.2996197,64
1774421416.3164175,67
1774421416.3327706,67
1774421416.3526084,66
1774421416.3661041,63
1774421416.3829775,60
1774421416.407015,57
1774421416.4164283,53
1774421416.4328496,50
1774421416.449415,47
1774421416.4664028,44
1774421416.4830415,42
1774421416.5051947,40
1774421416.5228841,40
1774421416.5368953,39
1774421416.5547626,39
1774421416.567387,39
1774421416.5868144,39
1774421416.6012018,38
1774421416.6258204,38
1774421416.633156,37
1774421416.6619508,36
1774421416.6669338,34
1774421416.682814,33
1774421416.6992843,32
1774421416.7164938,30
1774421416.7355917,29
1774421416.7572386,27
1774421416.7690296,26
1774421416.7915154,25
1774421416.8039362,24
1774421416.8255394,23
1774421416.8350298,22
1774421416.858896,21
1774421416.8694034,21
1774421416.890874,21
1774421416.9054523,21
1774421416.9191403,24
1774421416.937359,28
1774421416.951948,34
1774421416.9692373,41
1774421416.986332,49
1774421417.0008829,57
1774421417.0181725,63
1774421417.0329304,66
1774421417.0511081,67
1774421417.0659978,67
1774421417.0829384,64
1774421417.1076972,61
1774421417.1224709,58
1774421417.1406255,55
1774421417.1614869,51
1774421417.1751316,48
1774421417.1928377,45
1774421417.2008462,43
1774421417.2171152,41
1774421417.240995,40
1774421417.2582717,39
1774421417.2690458,38
1774421417.2842336,38
1774421417.3008394,38
1774421417.3161325,37
1774421417.332892,37
1774421417.3580062,36
1774421417.369962,35
1774421417.3867006,34
1774421417.4019754,32
1774421417.4179523,31
1774421417.4351652,29
1774421417.4495056,28
1774421417.465775,27
1774421417.4828687,25
1774421417.5034013,24
1774421417.5247154,23
1774421417.537378,22
1774421417.5574365,21
1774421417.5716345,20
1774421417.5841508,20
1774421417.6000834,19
1774421417.6244447,19
1774421417.6400385,20
1774421417.6530707,23
1774421417.6680834,27
1774421417.687419,34
1774421417.7034838,40
1774421417.723068,49
1774421417.7349987,56
1774421417.7509503,62
1774421417.767036,66
1774421417.7913778,67
1774421417.801634,67
1774421417.8314488,65
1774421417.8324556,62
1774421417.8588495,59
1774421417.8657517,55
1774421417.885418,52
1774421417.9004118,49
1774421417.920442,46
1774421417.9340508,43
1774421417.9510746,41
1774421417.9680812,40
1774421417.985329,39
1774421418.0009348,38
1774421418.0232809,37
1774421418.0382006,37
1774421418.0551567,37
1774421418.0717099,36
1774421418.0878212,36
1774421418.1027076,35
1774421418.1189778,33
1774421418.135159,32
1774421418.1519659,30
1774421418.168767,29
1774421418.1875184,27
1774421418.2017746,26
1774421418.2247887,24
1774421418.235019,23
1774421418.2508824,22
1774421418.2657063,21
1774421418.2826881,20
1774421418.3007221,19
1774421418.317016,18
1774421418.3416255,18
1774421418.3578856,18
1774421418.3674805,19
1774421418.3904178,22
1774421418.4014356,27
1774421418.4229314,34
1774421418.4360664,40
1774421418.4543872,48
1774421418.472891,55
1774421418.4839394,60
1774421418.502599,62
1774421418.5182958,63
1774421418.5343263,61
1774421418.556669,59
1774421418.5664194,56
1774421418.5864081,53
1774421418.599941,50
1774421418.6212804,47
1774421418.6378562,44
1774421418.65594,41
1774421418.6676674,40
1774421418.694182,38
1774421418.708192,36
1774421418.720151,36
1774421418.7402213,35
1774421418.7594602,35
1774421418.7673206,35
1774421418.7828267,34
1774421418.8039575,34
1774421418.8221693,33
1774421418.838734,32
1774421418.854077,31
1774421418.8673372,30
1774421418.883591,28
1774421418.9018564,27
1774421418.924113,26
1774421418.9355426,24
1774421418.9497564,23
1774421418.969694,22
1774421418.982481,21
1774421419.0010595,20
1774421419.015844,19
1774421419.032722,18
1774421419.0562916,18
1774421419.0667298,18
1774421419.0909808,18
1774421419.0997066,20
1774421419.1163087,23
1774421419.133537,28
1774421419.1549594,35
1774421419.1663551,41
1774421419.1870215,48
1774421419.1999278,54
1774421419.2184846,58
1774421419.2349012,59
1774421419.2501557,59
1774421419.266225,57
1774421419.2829475,54
1774421419.2995734,51
1774421419.31941,48
1774421419.3332262,45
1774421419.3605554,42
1774421419.3690183,40
1774421419.3848267,39
1774421419.4029307,37
1774421419.4250894,36
1774421419.4329665,35
1774421419.45066,35
1774421419.4656458,35
1774421419.4898124,35
1774421419.5044155,35
1774421419.5219412,35
1774421419.5338647,34
1774421419.553856,33
1774421419.5727556,32
1774421419.5823493,31
1774421419.6004457,30
1774421419.6163218,28
1774421419.637967,27
1774421419.6580663,26
1774421419.6703534,25
1774421419.6921537,23
1774421419.7052414,22
1774421419.7250414,22
1774421419.7380111,21
1774421419.7581024,20
1774421419.768533,20
1774421419.7910597,20
1774421419.8022425,20
1774421419.8231459,23
1774421419.83315,27
1774421419.855175,33
1774421419.8656454,40
1774421419.8872766,46
1774421419.899366,53
1774421419.9182165,58
1774421419.934106,61
1774421419.9526348,62
1774421419.9728932,61
1774421419.9823663,59
1774421420.006751,57
1774421420.0232172,54
1774421420.0341363,51
1774421420.0516877,48
1774421420.0751977,45
1774421420.0869203,42
1774421420.1008313,40
1774421420.1205878,40
1774421420.1363811,39
1774421420.1494281,38
1774421420.1689417,38
1774421420.188938,37
1774421420.2042751,37
1774421420.2203107,37
1774421420.2338865,37
1774421420.2523477,36
1774421420.2657218,35
1774421420.2824914,34
1774421420.3002298,32
1774421420.321663,31
1774421420.3446407,30
1774421420.3580508,28
1774421420.3720722,27
1774421420.391441,26
1774421420.4079728,25
1774421420.4220438,24
1774421420.4408998,23
1774421420.4512906,22
1774421420.472799,22
1774421420.4889226,21
1774421420.504847,22
1774421420.5214725,23
1774421420.5351837,26
1774421420.551337,31
1774421420.567237,38
1774421420.5832279,44
1774421420.6010287,52
1774421420.622416,58
1774421420.632983,63
1774421420.6580627,65
1774421420.6655686,65
1774421420.6843166,64
1774421420.7023363,62
1774421420.7246702,59
1774421420.7357025,57
1774421420.754554,54
1774421420.77237,51
1774421420.790853,48
1774421420.8000667,46
1774421420.8230495,44
1774421420.8390186,42
1774421420.8491788,41
1774421420.870145,40
1774421420.8867023,40
1774421420.9097636,40
1774421420.9176605,40
1774421420.9337413,39
1774421420.9514804,39
1774421420.965696,38
1774421420.9867878,37
1774421420.999551,35
1774421421.0244815,34
1774421421.0342782,32
1774421421.056642,31
1774421421.065584,30
1774421421.084456,28
1774421421.0992656,27
1774421421.1239219,26
1774421421.1397858,25
1774421421.1558847,24
1774421421.1718898,23
1774421421.1825569,23
1774421421.2041433,22
1774421421.2182097,22
1774421421.2361596,22
1774421421.2501576,23
1774421421.26579,26
1774421421.2847252,31
1774421421.3003392,38
1774421421.3186958,44
1774421421.3385243,52
1774421421.360612,59
1774421421.36741,63
1774421421.3886425,66
1774421421.4037335,66
1774421421.4248846,65
1774421421.4360754,63
1774421421.4534843,60
1774421421.4655704,58
1774421421.49051,55
1774421421.5041862,52
1774421421.5194697,49
1774421421.5385137,47
1774421421.5499516,44
1774421421.5683687,43
1774421421.5878196,41
1774421421.60374,40
1774421421.6198742,40
1774421421.6357815,40
1774421421.6518035,40
1774421421.6680453,39
1774421421.6843314,39
1774421421.7012255,38
1774421421.7158656,37
1774421421.73737,35
1774421421.7552752,34
1774421421.7727463,32
1774421421.7958364,31
1774421421.8016634,29
1774421421.8170838,28
1774421421.8329787,27
1774421421.855598,26
1774421421.865987,25
1774421421.8917942,24
1774421421.905006,23
1774421421.9242508,22
1774421421.936132,22
1774421421.9515738,21
1774421421.9698143,21
1774421421.98772,21
1774421422.000763,22
1774421422.0197418,26
1774421422.0353491,31
1774421422.0518856,38
1774421422.066,44
1774421422.0837786,52
1774421422.09979,58
1774421422.1158404,63
1774421422.1368854,65
1774421422.1530786,65
1774421422.1718414,63
1774421422.1839247,61
1774421422.201831,58
1774421422.218722,55
1774421422.235003,52
1774421422.257726,49
1774421422.2656178,47
1774421422.2825751,44
1774421422.3004932,42
1774421422.320907,41
1774421422.3386464,40
1774421422.3576236,40
1774421422.368735,40
1774421422.3848941,39
1774421422.400473,39
1774421422.417831,39
1774421422.4357545,38
1774421422.4601774,37
1774421422.474815,36
1774421422.4922347,35
1774421422.5073948,33
1774421422.5231068,32
1774421422.5369089,31
1774421422.5580437,29
1774421422.5699217,28
1774421422.5913777,27
1774421422.6019917,25
1774421422.6198587,25
1774421422.6327364,24
1774421422.6559815,23
1774421422.6671824,22
1774421422.6848102,22
1774421422.701842,21
1774421422.721796,21
1774421422.7341576,21
1774421422.752676,22
1774421422.766788,25
1774421422.7841582,29
1774421422.801858,35
1774421422.8186958,42
1774421422.8407118,49
1774421422.8589075,56
1774421422.876625,60
1774421422.8903394,63
1774421422.9026663,63
1774421422.9246545,62
1774421422.9406505,60
1774421422.9578407,57
1774421422.9724705,54
1774421422.989851,50
1774421423.0003388,47
1774421423.0213747,44
1774421423.0335243,42
1774421423.0535202,40
1774421423.0655499,40
1774421423.0853791,39
1774421423.101457,39
1774421423.1175163,39
1774421423.133327,39
1774421423.153928,39
1774421423.1658885,38
1774421423.188159,38
1774421423.2025187,37
1774421423.2213135,36
1774421423.236297,35
1774421423.256292,34
1774421423.272795,32
1774421423.2826157,31
1774421423.2995176,29
1774421423.3197536,28
1774421423.3353083,27
1774421423.353861,26
1774421423.3723533,24
1774421423.3884661,24
1774421423.4017138,23
1774421423.4204223,22
1774421423.4348202,22
1774421423.4512498,21
1774421423.46544,22
1774421423.483391,23
1774421423.499453,26
1774421423.5154567,31
1774421423.5322566,38
1774421423.5567331,44
1774421423.5706062,52
1774421423.5845954,58
1774421423.5999057,62
1774421423.624946,64
1774421423.6410556,64
1774421423.6587806,63
1774421423.6738272,60
1774421423.6878593,57
1774421423.70653,54
1774421423.7159185,51
1774421423.7392821,48
1774421423.7525907,45
1774421423.7695816,43
1774421423.7899387,41
1774421423.8009481,40
1774421423.8183722,39
1774421423.8322973,39
1774421423.8586745,39
1774421423.8662777,39
1774421423.8823302,38
1774421423.8988702,38
1774421423.922049,37
1774421423.9372098,37
1774421423.9578497,35
1774421423.977489,34
1774421423.9911976,33
1774421424.0043912,31
1774421424.0256286,30
1774421424.0325608,28
1774421424.0500333,27
1774421424.0676932,26
1774421424.0892704,25
1774421424.1043594,24
1774421424.1212907,23
1774421424.1325862,22
1774421424.1536012,22
1774421424.1679337,21
1774421424.1859775,21
1774421424.200955,21
1774421424.2171676,22
1774421424.2328541,25
1774421424.2525313,30
1774421424.2653763,37
1774421424.2822533,44
1774421424.2996485,52
1774421424.31582,59
1774421424.3403852,64
1774421424.358168,66
1774421424.3688064,67
1774421424.391342,66
1774421424.4032297,64
1774421424.4247673,61
1774421424.441057,58
1774421424.4574344,55
1774421424.473428,52
1774421424.4893508,49
1774421424.499282,47
1774421424.5213597,44
1774421424.537546,43
1774421424.5524452,41
1774421424.5688279,40
1774421424.587994,40
1774421424.6007843,40
1774421424.6174433,40
1774421424.6356542,40
1774421424.656042,40
1774421424.6653485,39
1774421424.6823888,38
1774421424.6992965,36
1774421424.727823,34
1774421424.7321222,33
1774421424.7583308,31
1774421424.772773,30
1774421424.7826924,28
1774421424.8001251,27
1774421424.822693,26
1774421424.8372667,25
1774421424.8532393,24
1774421424.8675082,23
1774421424.886837,22
1774421424.9029243,22
1774421424.9177809,21
1774421424.9337347,21
1774421424.950117,21
1774421424.9687467,23
1774421424.991003,26
1774421425.0017207,32
1774421425.021072,38
1774421425.0327725,45
1774421425.0544274,53
1774421425.0653343,60
1774421425.0846086,65
1774421425.1003556,67
1774421425.1190813,67
1774421425.1413546,66
1774421425.1556106,64
1774421425.1667473,61
1774421425.187725,58
1774421425.2034283,55
1774421425.2196739,52
1774421425.2337575,49
1774421425.2517645,47
1774421425.2656944,45
1774421425.2824316,43
1774421425.2992952,41
1774421425.321111,40
1774421425.3411524,40
1774421425.3581061,40
1774421425.3699787,40
1774421425.383274,39
1774421425.4007223,39
1774421425.4222636,38
1774421425.4331021,37
1774421425.4551935,35
1774421425.4653075,34
1774421425.4913836,32
1774421425.4986498,31
1774421425.5187278,29
1774421425.537011,28
1774421425.5545058,27
1774421425.5696685,25
1774421425.586557,24
1774421425.602422,24
1774421425.618642,23
1774421425.633567,22
1774421425.658108,22
1774421425.6691258,21
1774421425.6945586,21
1774421425.7061753,21
1774421425.715738,22
1774421425.7389483,25
1774421425.755746,29
1774421425.7656271,36
1774421425.7840917,42
1774421425.8008482,50
1774421425.8189063,57
1774421425.8368175,62
1774421425.8495877,65
1774421425.8652647,66
1774421425.8872652,65
1774421425.9016576,63
1774421425.9215484,60
1774421425.9339926,57
1774421425.9497995,54
1774421425.966698,51
1774421425.983236,49
1774421426.000861,46
1774421426.0223196,44
1774421426.0342202,42
1774421426.054572,41
1774421426.0757935,40
1774421426.091404,40
1774421426.106017,40
1774421426.1231873,40
1774421426.1359732,40
1774421426.1502004,39
1774421426.1697176,38
1774421426.191343,37
1774421426.2016082,36
1774421426.2191453,35
1774421426.2354238,33
1774421426.2510846,32
1774421426.2653973,30
1774421426.2823017,29
1774421426.299106,28
1774421426.321427,27
1774421426.3429823,26
1774421426.351704,25
1774421426.374986,24
1774421426.3835251,23
1774421426.408188,23
1774421426.424808,22
1774421426.435932,22
1774421426.458071,23
1774421426.4733474,25
1774421426.4894226,29
1774421426.5034323,34
1774421426.518329,40
1774421426.536988,47
1774421426.5581586,55
1774421426.566309,61
1774421426.5854783,64
1774421426.6008115,66
1774421426.617539,65
1774421426.632712,64
1774421426.6529593,61
1774421426.6656094,58
1774421426.6819594,55
1774421426.703677,52
1774421426.7207246,49
1774421426.7342465,47
1774421426.759625,45
1774421426.7688615,43
1774421426.7915947,42
1774421426.7987378,41
1774421426.823445,41
1774421426.8323002,41
1774421426.8551528,41
1774421426.8692925,40
1774421426.887509,40
1774421426.90357,40
1774421426.9196024,39
1774421426.9355183,38
1774421426.9580297,37
1774421426.9665577,35
1774421426.9819841,34
1774421426.998639,32
1774421427.0242307,31
1774421427.0346186,30
1774421427.0577116,29
1774421427.0680366,28
1774421427.0905883,27
1774421427.1025288,26
1774421427.1264923,26
1774421427.139911,25
1774421427.1551042,25
1774421427.1707387,25
1774421427.190203,27
1774421427.201906,30
1774421427.2176812,36
1774421427.2405288,41
1774421427.248735,49
1774421427.2666204,56
1774421427.2822561,62
1774421427.2987418,66
1774421427.315766,68
1774421427.3355405,68
1774421427.3514397,66
1774421427.367602,64
1774421427.3833451,61
1774421427.4008439,58
1774421427.4202542,55
1774421427.434804,52
1774421427.4581656,49
1774421427.4652376,47
1774421427.4903238,45
1774421427.504551,44
1774421427.5292525,43
1774421427.5403252,42
1774421427.559688,42
1774421427.5673695,42
1774421427.5897186,41
1774421427.605172,41
1774421427.6237085,40
1774421427.6367211,40
1774421427.6529412,38
1774421427.6685805,37
1774421427.6865642,35
1774421427.6995194,34
1774421427.7168996,32
1774421427.7327297,31
1774421427.7487106,30
1774421427.7684221,28
1774421427.7914164,27
1774421427.802781,27
1774421427.8248577,26
1774421427.8330653,25
1774421427.858044,25
1774421427.8653255,24
1774421427.889931,24
1774421427.9023087,25
1774421427.9249034,28
1774421427.932363,32
1774421427.956894,38
1774421427.9695458,45
1774421427.9885786,53
1774421428.0003679,60
1774421428.0246909,66
1774421428.03681,69
1774421428.0526445,70
1774421428.0687807,69
1774421428.0847075,67
1774421428.1030045,65
1774421428.116846,62
1774421428.1327527,59
1774421428.1488516,57
1774421428.1690762,54
1774421428.1955862,51
1774421428.2032366,49
1774421428.220013,47
1774421428.2344985,45
1774421428.257476,44
1774421428.2651482,43
1774421428.2822583,43
1774421428.2992764,42
1774421428.3185275,42
1774421428.3342125,41
1774421428.3500006,40
1774421428.3657255,40
1774421428.3821929,38
1774421428.3993258,37
1774421428.4239175,35
1774421428.434769,34
1774421428.450391,32
1774421428.4679203,30
1774421428.4844508,29
1774421428.499631,28
1774421428.5158708,27
1774421428.5322225,26
1774421428.5488799,25
1774421428.5655546,25
1774421428.5838342,24
1774421428.599905,24
1774421428.6205413,23
1774421428.6318576,24
1774421428.6516733,27
1774421428.6665113,31
1774421428.6915915,38
1774421428.7075968,44
1774421428.7236073,53
1774421428.7397108,60
1774421428.7556057,66
1774421428.7668917,69
1774421428.782173,70
1774421428.8019402,69
1774421428.8223808,67
1774421428.835256,64
1774421428.851839,61
1774421428.8706806,59
1774421428.8865252,56
1774421428.8988516,53
1774421428.9171355,50
1774421428.932293,48
1774421428.9501038,46
1774421428.9659534,44
1774421428.983349,43
1774421428.9989989,42
1774421429.0158114,42
1774421429.0321782,42
1774421429.0579436,41
1774421429.06511,40
1774421429.0825846,40
1774421429.100537,39
1774421429.1159139,38
1774421429.133193,36
1774421429.152932,35
1774421429.16875,33
1774421429.1839852,31
1774421429.2026808,30
1774421429.2161689,28
1774421429.2370062,27
1774421429.2591808,26
1774421429.2664502,25
1774421429.2837014,24
1774421429.3000004,24
1774421429.3172793,23
1774421429.3367152,23
1774421429.3488972,23
1774421429.3686395,23
1774421429.3904324,25
1774421429.4049234,29
1774421429.4218495,35
1774421429.4337175,41
1774421429.453782,50
1774421429.465625,58
1774421429.4860935,64
1774421429.4984484,68
1774421429.5182383,70
1774421429.5421126,70
1774421429.5489075,68
1774421429.5678759,65
1774421429.585925,62
1774421429.6034641,59
1774421429.6161947,56
1774421429.6394947,53
1774421429.6518762,50
1774421429.6740417,47
1774421429.6916869,45
1774421429.7047832,44
1774421429.7248123,42
1774421429.7376442,42
1774421429.7561557,41
1774421429.768848,41
1774421429.7888334,40
1774421429.8010328,40
1774421429.8198383,40
1774421429.835947,39
1774421429.8518667,38
1774421429.8669233,36
1774421429.8828998,35
1774421429.8989952,33
1774421429.9237518,31
1774421429.9372263,30
1774421429.9579182,28
1774421429.9747694,27
1774421429.981774,26
1774421430.001362,25
1774421430.0201313,24
1774421430.041052,23
1774421430.057009,23
1774421430.0728557,22
1774421430.091596,22
1774421430.1003056,21
1774421430.1210446,22
1774421430.1326027,23
1774421430.1529486,26
1774421430.1690123,32
1774421430.1843603,39
1774421430.2001307,46
1774421430.2162125,54
1774421430.2320595,62
1774421430.2484756,67
1774421430.26512,70
1774421430.2852151,70
1774421430.2983768,69
1774421430.324605,66
1774421430.33432,63
1774421430.3536432,59
1774421430.372412,56
1774421430.388108,53
1774421430.3998785,50
1774421430.4247434,47
1774421430.43899,45
1774421430.4571607,43
1774421430.4703393,42
1774421430.4863076,42
1774421430.5020244,41
1774421430.517038,41
1774421430.5327125,41
1774421430.557882,40
1774421430.5693002,40
1774421430.5953815,40
1774421430.600931,39
1774421430.6186066,37
1774421430.6333632,36
1774421430.6591604,34
1774421430.6652162,33
1774421430.6914024,31
1774421430.6984184,29
1774421430.7160823,28
1774421430.73427,27
1774421430.755169,26
1774421430.7651439,25
1774421430.78717,24
1774421430.8029633,23
1774421430.8212383,23
1774421430.8324733,22
1774421430.8512642,23
1774421430.8670366,24
1774421430.883067,28
1774421430.8992572,34
1774421430.9161515,40
1774421430.9317632,48
1774421430.9499202,56
1774421430.9704957,63
1774421430.9913814,67
1774421431.0020347,69
1774421431.0275774,68
1774421431.0323107,66
1774421431.0590966,63
1774421431.066391,60
1774421431.0910106,56
1774421431.0988457,52
1774421431.1230483,49
1774421431.1330006,46
1774421431.1553006,44
1774421431.1712215,42
1774421431.1871276,40
1774421431.1984315,40
1774421431.219377,40
1774421431.2399745,40
1774421431.2543347,40
1774421431.2671227,40
1774421431.282416,40
1774421431.2989242,40
1774421431.3206897,38
1774421431.3365922,37
1774421431.3485734,36
1774421431.3651607,34
1774421431.3853748,33
1774421431.4043663,31
1774421431.4165893,29
1774421431.4333544,28
1774421431.4545512,27
1774421431.465,25
1774421431.485587,24
1774421431.504156,24
1774421431.52128,23
1774421431.5371678,23
1774421431.5530956,23
1774421431.569255,24
1774421431.583574,27
1774421431.6083074,32
1774421431.6172154,39
1774421431.6327767,47
1774421431.649316,55
1774421431.6703715,62
1774421431.6883082,67
1774421431.7069492,70
1774421431.7247,70
1774421431.7375977,68
1774421431.7564127,65
1774421431.7654347,62
1774421431.794541,59
1774421431.8009171,55
1774421431.823538,52
1774421431.8347666,49
1774421431.8561015,47
1774421431.869178,44
1774421431.8881068,43
1774421431.9020886,42
1774421431.9173355,41
1774421431.933721,41
1774421431.9522574,40
1774421431.9658244,40
1774421431.994245,40
1774421431.9998016,40
1774421432.0152733,39
1774421432.0360677,38
1774421432.0538645,36
1774421432.0689983,35
1774421432.087061,33
1774421432.1003957,32
1774421432.1226728,30
1774421432.1366465,29
1774421432.1580162,27
1774421432.170502,26
1774421432.1846902,25
1774421432.202327,24
1774421432.2186372,24
1774421432.2367885,23
1774421432.2534394,23
1774421432.2655628,24
1774421432.2830718,27
1774421432.2987788,32
1774421432.3221734,39
1774421432.3333862,46
1774421432.357722,55
1774421432.3680723,62
1774421432.3918648,67
1774421432.4078517,70
1774421432.4254215,70
1774421432.4375782,69
1774421432.4527602,66
1774421432.4721599,64
1774421432.4827566,61
1774421432.5017552,58
1774421432.5195963,55
1774421432.5319972,52
1774421432.5507252,50
1774421432.5659368,47
1774421432.5829153,45
1774421432.6001153,44
1774421432.6170406,43
1774421432.6336772,42
1774421432.6483362,41
1774421432.6664028,41
1774421432.6839204,40
1774421432.6982894,40
1774421432.7223516,39
1774421432.738187,38
1774421432.7580032,36
1774421432.7650275,35
1774421432.7888424,33
1774421432.8005579,31
1774421432.8252032,30
1774421432.8346627,28
1774421432.8574617,27
1774421432.8726208,26
1774421432.8890555,25
1774421432.9054272,24
1774421432.9196637,23
1774421432.9368548,22
1774421432.9526956,22
1774421432.9673452,22
1774421432.9827833,24
1774421433.0007532,28
1774421433.0160306,34
1774421433.031914,40
1774421433.0501158,47
1774421433.065774,55
1774421433.0843775,60
1774421433.1022072,64
1774421433.1218624,65
1774421433.1367552,65
1774421433.15956,63
1774421433.1717405,61
1774421433.1918044,58
1774421433.2039227,56
1774421433.2208104,53
1774421433.2355359,51
1774421433.2508419,48
1774421433.2660255,46
1774421433.2819803,44
1774421433.3005803,42
1774421433.3178537,40
1774421433.335653,40
1774421433.3584592,39
1774421433.36717,39
1774421433.3830109,38
1774421433.4015799,37
1774421433.4186153,36
1774421433.433381,35
1774421433.4511917,34
1774421433.46836,32
1774421433.4869816,31
1774421433.5013387,29
1774421433.518844,28
1774421433.531979,26
1774421433.554824,25
1774421433.5747695,24
1774421433.5889013,23
1774421433.6006937,22
1774421433.6209362,21
1774421433.6386907,21
1774421433.6595519,20
1774421433.6708002,20
1774421433.6839576,19
1774421433.7012813,20
1774421433.718724,22
1774421433.7336373,26
1774421433.7542305,31
1774421433.7671347,38
1774421433.7821295,44
1774421433.7991996,51
1774421433.818853,56
1774421433.8327792,59
1774421433.8517797,61
1774421433.8682947,60
1774421433.893175,59
1774421433.9000797,57
1774421433.9166865,55
1774421433.934399,52
1774421433.9560883,50
1774421433.9738963,48
1774421433.9897459,45
1774421434.000679,43
1774421434.022156,41
1774421434.0320244,40
1774421434.0538378,40
1774421434.0698795,39
1774421434.08597,38
1774421434.1018913,38
1774421434.117723,37
1774421434.1397333,36
1774421434.1502178,36
1774421434.165201,34
1774421434.1872869,33
1774421434.2010844,32
1774421434.223678,30
1774421434.2357972,29
1774421434.258053,28
1774421434.2649696,26
1774421434.282134,25
1774421434.29879,24
1774421434.3163567,23
1774421434.3314786,22
1774421434.3545208,22
1774421434.3735282,21
1774421434.3899095,21
1774421434.4007285,20
1774421434.418753,20
1774421434.436879,20
1774421434.4486842,21
1774421434.4689298,23
1774421434.4847176,27
1774421434.4998848,33
1774421434.522268,40
1774421434.5319543,46
1774421434.553366,52
1774421434.5687532,57
1774421434.5853148,59
1774421434.6018596,60
1774421434.6171927,60
1774421434.6330204,58
1774421434.657738,56
1774421434.665877,54
1774421434.6898491,52
1774421434.698849,50
1774421434.7162683,47
1774421434.737776,45
1774421434.7538636,43
1774421434.769791,41
1774421434.7913628,40
1774421434.8018463,40
1774421434.8233967,40
1774421434.8353374,39
1774421434.8498404,39
1774421434.8659265,38
1774421434.8922212,37
1774421434.9039862,36
1774421434.9212544,35
1774421434.9371653,34
1774421434.9530385,33
1774421434.9708998,31
1774421434.9886599,30
1774421435.0032394,29
1774421435.0221057,27
1774421435.0331113,26
1774421435.0506873,25
1774421435.0648706,24
1774421435.0877903,24
1774421435.0981183,23
1774421435.1183383,22
1774421435.1318111,22
1774421435.1501107,22
1774421435.1678755,21
1774421435.1818297,21
1774421435.1984274,21
1774421435.220469,22
1774421435.2405367,24
1774421435.2594807,28
1774421435.2648468,34
1774421435.281648,40
1774421435.299302,47
1774421435.3219662,53
1774421435.340608,59
1774421435.3567362,62
1774421435.3706896,63
1774421435.388732,63
1774421435.4008598,62
1774421435.420885,60
1774421435.4360938,58
1774421435.4528067,55
1774421435.4653265,53
1774421435.482888,51
1774421435.500096,49
1774421435.515157,47
1774421435.5314145,45
1774421435.5488253,44
1774421435.5653083,43
1774421435.583553,42
1774421435.6080818,41
1774421435.6160665,40
1774421435.6328366,40
1774421435.6560864,40
1774421435.672982,39
1774421435.6882532,38
1774421435.7064402,36
1774421435.7185173,35
1774421435.736992,33
1774421435.7547739,32
1774421435.7689698,31
1774421435.7867236,29
1774421435.8007877,28
1774421435.8186548,27
1774421435.833315,26
1774421435.8570282,25
1774421435.8659363,24
1774421435.891435,24
1774421435.898803,23
1774421435.924708,23
1774421435.93548,23
1774421435.958293,23
1774421435.9655526,22
1774421435.9815512,22
1774421436.0029738,23
1774421436.015177,26
1774421436.041399,30
1774421436.054171,36
1774421436.0652657,42
1774421436.0902102,49
1774421436.0985966,56
1774421436.1222413,61
1774421436.1346135,64
1774421436.154288,65
1774421436.167816,65
1774421436.1862369,63
1774421436.1986065,61
1774421436.2159913,58
1774421436.2323272,56
1774421436.2511437,53
1774421436.2647936,51
1774421436.2824783,49
1774421436.298471,47
1774421436.3238783,45
1774421436.3343744,44
1774421436.3565419,43
1774421436.3708086,42
1774421436.3941298,42
1774421436.4021378,41
1774421436.42562,41
1774421436.441319,40
1774421436.4501905,40
1774421436.4727988,39
1774421436.4890876,37
1774421436.5062594,36
1774421436.5222673,34
1774421436.5363753,33
1774421436.5541427,31
1774421436.5696304,30
1774421436.586207,29
1774421436.6012347,28
1774421436.6225498,27
1774421436.6336217,26
1774421436.6540432,25
1774421436.664942,25
1774421436.6823199,24
1774421436.698005,24
1774421436.7228096,23
1774421436.7331245,23
1774421436.75755,23
1774421436.7665055,23
1774421436.7833793,25
1774421436.8035927,28
1774421436.825051,33
1774421436.8374376,40
1774421436.8517709,46
1774421436.8719778,53
1774421436.8902109,60
1774421436.9047027,64
1774421436.9221687,66
1774421436.9368603,65
1774421436.954642,64
1774421436.9698658,61
1774421436.986937,59
1774421437.0004535,56
1774421437.0173578,53
1774421437.0333333,50
1774421437.0494308,47
1774421437.064951,45
1774421437.0885196,44
1774421437.103978,42
1774421437.1248283,42
1774421437.144151,41
1774421437.1516318,41
1774421437.1662545,41
1774421437.191023,41
1774421437.2052472,40
1774421437.2236443,40
1774421437.239704,40
1774421437.2499049,38
1774421437.2664661,37
1774421437.2826035,35
1774421437.300711,34
1774421437.315843,32
1774421437.3324037,30
1774421437.3524673,29
1774421437.3679307,28
1774421437.382744,27
1774421437.4032528,26
1774421437.42051,25
1774421437.4314222,25
1774421437.4604182,24
1774421437.4649456,24
1774421437.4912202,24
1774421437.5021904,25
1774421437.5247557,29
1774421437.5332315,34
1774421437.55884,40
1774421437.5717494,47
1774421437.5843189,54
1774421437.5999823,60
1774421437.6186743,64
1774421437.6349912,65
1774421437.6546817,65
1774421437.6679132,63
1774421437.688703,60
1774421437.7020133,57
1774421437.725661,54
1774421437.7366397,51
1774421437.7517605,49
1774421437.7693207,46
1774421437.7927792,44
1774421437.8002446,42
1774421437.8243973,41
1774421437.8348753,40
1774421437.8553805,40
1774421437.8652866,40
1774421437.8893263,40
1774421437.897996,40
1774421437.9211087,39
1774421437.9332068,39
1774421437.957952,37
1774421437.9680796,36
1774421437.9839725,35
1774421437.999984,33
1774421438.0161693,31
1774421438.0319722,30
1774421438.0512395,28
1774421438.073586,27
1774421438.0866776,26
1774421438.10058,25
1774421438.127003,24
1774421438.1315703,23
1774421438.1565251,22
1774421438.1747031,23
1774421438.187879,25
1774421438.206108,29
1774421438.2231486,35
1774421438.2366776,42
1774421438.2550142,49
1774421438.2660275,56
1774421438.2816367,62
1774421438.2981875,65
1774421438.3191006,65
1774421438.3349235,64
1774421438.3582406,62
1774421438.3669713,59
1774421438.38688,56
1774421438.399452,54
1774421438.4201047,51
1774421438.434647,48
1774421438.4500759,46
1774421438.4656909,43
1774421438.4913414,41
1774421438.5021584,40
1774421438.520399,39
1774421438.5367298,38
1774421438.557198,38
1774421438.5651584,38
1774421438.5890322,37
1774421438.6012158,36
1774421438.62123,35
1774421438.63318,34
1774421438.6531942,33
1774421438.6648815,31
1774421438.6851707,30
1774421438.7043571,28
1774421438.717507,27
1774421438.7415698,25
1774421438.7494392,24
1774421438.7653837,23
1774421438.7913039,22
1774421438.8021798,21
1774421438.8249428,20
1774421438.833998,19
1774421438.8606858,19
1774421438.873105,19
1774421438.892653,20
1774421438.9058247,23
1774421438.924647,29
1774421438.9335017,35
1774421438.9509804,42
1774421438.9692607,50
1774421438.9838924,57
1774421439.0007818,62
1774421439.0207987,64
1774421439.0323634,65
1774421439.0528257,63
1774421439.0648243,61
1774421439.0846689,58
1774421439.1021092,55
1774421439.1168401,53
1774421439.1312525,50
1774421439.1535723,47
1774421439.1686966,45
1774421439.1815577,43
1774421439.207218,41
1774421439.2217925,40
1774421439.2429886,39
1774421439.2490554,38
1774421439.268963,37
1774421439.2817454,37
1774421439.299177,36
1774421439.3152544,36
1774421439.3371763,35
1774421439.3566937,34
1774421439.3705146,32
1774421439.388758,31
1774421439.3994186,29
1774421439.4208236,28
1774421439.4328873,26
1774421439.4527476,25
1774421439.46478,24
1774421439.4847112,23
1774421439.4978478,21
1774421439.5147238,21
1774421439.5415885,20
1774421439.5497117,19
1774421439.5648017,19
1774421439.5923219,18
1774421439.607954,18
1774421439.6229832,18
1774421439.63256,19
1774421439.6488838,23
1774421439.6656282,28
1774421439.6820004,35
1774421439.7001638,42
1774421439.7246218,51
1774421439.7405694,58
1774421439.7566447,63
1774421439.7689674,66
1774421439.7882452,67
1774421439.8008494,66
1774421439.8200283,63
1774421439.8327336,61
1774421439.85181,58
1774421439.8658502,55
1774421439.8817093,52
1774421439.8978426,49
1774421439.9248474,47
1774421439.941301,44
1774421439.9624293,42
1774421439.9653585,41
1774421439.9893122,40
1774421440.0094242,40
1774421440.0248966,39
1774421440.031492,39
1774421440.0573032,38
1774421440.0745459,38
1774421440.0916376,37
1774421440.1051114,36
1774421440.1188254,34
1774421440.1352751,33
1774421440.1556892,31
1774421440.1716447,30
1774421440.1876528,28
1774421440.2037573,27
1774421440.2156,26
1774421440.2338088,24
1774421440.2502937,23
1774421440.2658148,22
1774421440.2820597,22
1774421440.2978413,21
1774421440.3228595,20
1774421440.3384287,20
1774421440.3557394,20
1774421440.3734975,19
1774421440.39374,19
1774421440.4081705,20
1774421440.425337,21
1774421440.4386075,25
1774421440.4573007,31
1774421440.4731424,39
1774421440.489301,46
1774421440.5053983,55
1774421440.5213618,62
1774421440.5373323,67
1774421440.5533109,70
1774421440.5690749,70
1774421440.5854464,68
1774421440.6013968,66
1774421440.615925,62
1774421440.6359148,59
1774421440.653863,56
1774421440.6684062,53
1774421440.684942,50
1774421440.7057936,47
1774421440.7264981,45
1774421440.737104,43
1774421440.7552662,42
1774421440.7752836,41
1774421440.7864647,41
1774421440.7989938,40
1774421440.816323,40
1774421440.839383,40
1774421440.8552935,40
1774421440.8692892,39
1774421440.887313,38
1774421440.8985093,36
1774421440.915304,35
1774421440.9373233,33
1774421440.9551992,31
1774421440.9674296,30
1774421440.9835918,28
1774421440.9984784,27
1774421441.0145411,26
1774421441.0352092,25
1774421441.0509987,24
1774421441.0677671,23
1774421441.082771,22
1774421441.0988872,21
1774421441.1254308,21
1774421441.1317332,21
1774421441.157961,20
1774421441.1663356,20
1774421441.1924741,21
1774421441.2027233,24
1774421441.221371,28
1774421441.2373207,35
1774421441.2562985,42
1774421441.2651734,52
1774421441.2815228,60
1774421441.2984924,67
1774421441.3174295,71
1774421441.3333292,73
1774421441.3493505,72
1774421441.366814,70
1774421441.3891585,66
1774421441.4030378,63
1774421441.4189553,59
1774421441.4322217,56
1774421441.4580207,53
1774421441.4648428,50
1774421441.4820411,48
1774421441.5006676,46
1774421441.524667,44
1774421441.539546,43
1774421441.5570645,43
1774421441.574909,42
1774421441.589137,42
1774421441.6080873,42
1774421441.6198668,41
1774421441.634815,41
1774421441.6512992,40
1774421441.6663842,39
1774421441.6828856,38
1774421441.6989722,36
1774421441.7162905,34
1774421441.7349136,33
1774421441.7503514,31
1774421441.7684004,30
1774421441.7937462,28
1774421441.8014421,27
1774421441.82706,26
1774421441.8346305,25
1774421441.8559172,25
1774421441.8679132,24
1774421441.8908672,23
1774421441.8989635,23
1774421441.9229064,23
1774421441.9312997,23
1774421441.9547868,25
1774421441.969854,28
1774421441.985359,34
1774421441.998687,41
1774421442.016911,50
1774421442.0334952,59
1774421442.0494394,66
1774421442.0691402,71
1774421442.0877829,74
1774421442.1047003,74
1774421442.1254063,72
1774421442.134114,69
1774421442.158766,65
1774421442.166314,61
1774421442.1860054,58
1774421442.2002022,54
1774421442.2200532,51
1774421442.2326503,49
1774421442.255922,47
1774421442.264475,46
1774421442.281973,45
1774421442.2977057,44
1774421442.3159204,44
1774421442.335335,44
1774421442.3580165,44
1774421442.3643456,44
1774421442.381302,43
1774421442.4061887,42
1774421442.4202158,40
1774421442.4401612,40
1774421442.455551,38
1774421442.4759154,36
1774421442.4924161,35
1774421442.502108,33
1774421442.5162024,31
1774421442.5386446,30
1774421442.5534866,29
1774421442.568279,28
1774421442.5903502,27
1774421442.5997138,26
1774421442.6177602,26
1774421442.6331766,25
1774421442.6521559,25
1774421442.6649497,25
1774421442.6861725,28
1774421442.7027433,32
1774421442.7161841,39
1774421442.7352705,47
1774421442.7591028,56
1774421442.7750523,64
1774421442.7911344,71
1774421442.8072002,75
1774421442.8192868,76
1774421442.8393106,75
1774421442.855481,73
1774421442.87123,70
1774421442.8873398,66
1774421442.9062812,63
1774421442.9190848,60
1774421442.9345436,56
1774421442.951986,53
1774421442.9697623,51
1774421442.9845982,49
1774421442.9994774,47
1774421443.0152776,46
1774421443.0312004,46
1774421443.0497367,45
1774421443.0664504,45
1774421443.0894604,44
1774421443.1043496,44
1774421443.126108,42
1774421443.1310496,41
1774421443.1571105,40
1774421443.1720939,39
1774421443.1854465,37
1774421443.2002406,35
1774421443.2213292,34
1774421443.237283,32
1774421443.2531273,31
1774421443.2645283,29
1774421443.2825792,28
1774421443.2984977,27
1774421443.3237283,26
1774421443.3324873,25
1774421443.3482518,25
1774421443.3729575,24
1774421443.3920789,24
1774421443.401243,25
1774421443.4282243,27
1774421443.436385,32
1774421443.4506793,39
1774421443.4657087,46
1774421443.4916189,55
1774421443.4976528,64
1774421443.5232859,70
1774421443.53553,75
1774421443.5497193,76
1774421443.571289,75
1774421443.5913718,73
1774421443.607471,70
1774421443.618379,67
1774421443.6343591,63
1774421443.6488714,60
1774421443.6659765,57
1774421443.6839647,54
1774421443.6998749,51
1774421443.7149436,49
1774421443.7368743,47
1774421443.7523022,46
1774421443.770379,45
1774421443.7813988,44
1774421443.7977824,44
1774421443.8167295,43
1774421443.8313372,42
1774421443.8533885,41
1774421443.8666744,40
1774421443.8903055,39
1774421443.8976462,37
1774421443.9218113,36
1774421443.9330409,34
1774421443.9538252,32
1774421443.9679267,31
1774421443.9852817,29
1774421444.0019915,28
1774421444.0164769,26
1774421444.0343952,25
1774421444.0503929,24
1774421444.067225,24
1774421444.0823882,23
1774421444.0990727,22
1774421444.1206138,22
1774421444.13375,22
1774421444.1533732,22
1774421444.1680284,24
1774421444.1911945,27
1774421444.2026424,33
1774421444.2219508,40
1774421444.2310805,48
1774421444.2527938,57
1774421444.2648084,64
1774421444.2816234,69
1774421444.2976053,71
1774421444.3206224,71
1774421444.3325777,70
1774421444.3519783,67
1774421444.3715637,64
1774421444.3819556,60
1774421444.400259,57
1774421444.418043,54
1774421444.434013,51
1774421444.4500155,49
1774421444.46592,46
1774421444.4820313,44
1774421444.500315,43
1774421444.5143218,42
1774421444.5348394,42
1774421444.553456,41
1774421444.5705109,41
1774421444.588827,40
1774421444.5990655,40
1774421444.6167424,39
1774421444.63308,38
1774421444.6520185,36
1774421444.6645732,35
1774421444.6899433,33
1774421444.7035825,31
1774421444.7209246,30
1774421444.7322633,28
1774421444.754536,27
1774421444.7699285,26
1774421444.7861273,25
1774421444.801674,24
1774421444.8191216,23
1774421444.833372,23
1774421444.8501015,22
1774421444.865607,22
1774421444.882892,22
1774421444.8988144,22
1774421444.9169993,24
1774421444.9355197,28
1774421444.958311,33
1774421444.9672065,40
1774421444.9912658,48
1774421445.0044172,56
1774421445.0236113,62
1774421445.0334663,67
1774421445.0573163,68
1774421445.0662236,68
1774421445.089361,66
1774421445.0995834,63
1774421445.11569,59
1774421445.1327484,56
1774421445.151473,53
1774421445.1675785,50
1774421445.1849966,47
1774421445.2014797,45
1774421445.217567,43
1774421445.2334993,41
1774421445.2506802,41
1774421445.26499,40
1774421445.2812455,40
1774421445.2993677,40
1774421445.3224652,40
1774421445.338165,40
1774421445.3597689,39
1774421445.3686883,38
1774421445.3842824,36
1774421445.399467,35
1774421445.4197106,33
1774421445.4332645,32
1774421445.4525578,30
1774421445.4665716,29
1774421445.4885585,28
1774421445.4991412,26
1774421445.5210567,25
1774421445.535122,24
1774421445.5542471,24
1774421445.5679328,23
1774421445.5873382,22
1774421445.6000352,22
1774421445.616004,22
1774421445.633057,23
1774421445.6481438,26
1774421445.6720161,31
1774421445.691338,37
1774421445.7047958,44
1774421445.726207,52
1774421445.7327425,60
1774421445.753991,65
1774421445.768973,67
1774421445.7875352,68
1774421445.8004825,66
1774421445.8223178,64
1774421445.8314989,61
1774421445.8485863,58
1774421445.8645318,54
1774421445.88634,51
1774421445.8996537,49
1774421445.9183233,46
1774421445.9343338,44
1774421445.950212,42
1774421445.9645476,41
1774421445.9812458,40
1774421445.9979541,40
1774421446.0258925,40
1774421446.0331829,40
1774421446.057868,40
1774421446.0742047,39
1774421446.0889115,38
1774421446.1083357,37
1774421446.122259,36
1774421446.1374183,34
1774421446.1527152,33
1774421446.166123,31
1774421446.1870322,30
1774421446.2007794,28
1774421446.2204645,27
1774421446.233574,26
1774421446.2489512,24
1774421446.2649078,24
1774421446.2821565,23
1774421446.2974927,22
1774421446.3169556,22
1774421446.3356316,22
1774421446.3512971,23
1774421446.367925,25
1774421446.3883188,30
1774421446.4068518,37
1774421446.4220965,44
1774421446.4387665,52
1774421446.4523604,60
1774421446.4747717,66
1774421446.4834268,69
1774421446.504824,70
1774421446.520289,69
1774421446.5367792,67
1774421446.5543742,64
1774421446.5675123,61
1774421446.5864708,57
1774421446.601446,54
1774421446.6175332,52
1774421446.632381,49
1774421446.6494882,46
1774421446.6648033,44
1774421446.688254,42
1774421446.6975987,41
1774421446.7233906,40
1774421446.7326314,40
1774421446.7505271,40
1774421446.7726316,40
1774421446.7915049,39
1774421446.8086405,38
1774421446.8248293,37
1774421446.8418953,35
1774421446.8571057,34
1774421446.8704023,32
1774421446.8888967,31
1774421446.902185,29
1774421446.9227514,28
1774421446.937008,26
1774421446.9529958,25
1774421446.965826,24
1774421446.9866612,23
1774421446.9999995,22
1774421447.0161324,22
1774421447.0334527,21
1774421447.0503314,21
1774421447.0642445,21
1774421447.0895271,21
1774421447.1025045,23
1774421447.124117,28
1774421447.131196,34
1774421447.157878,41
1774421447.171992,50
1774421447.189099,58
1774421447.2058275,65
1774421447.2214515,69
1774421447.2323568,71
1774421447.2527597,70
1774421447.2678587,69
1774421447.282051,66
1774421447.3005028,63
1774421447.3146696,60
1774421447.336697,57
1774421447.3494444,54
1774421447.3659496,51
1774421447.3817403,48
1774421447.4012082,46
1774421447.4142132,44
1774421447.43654,42
1774421447.4512544,41
1774421447.4685323,40
1774421447.4933062,40
1774421447.499954,40
1774421447.5232534,39
1774421447.532,39
1774421447.5547261,37
1774421447.5722134,36
1774421447.586249,35
1774421447.6042798,33
1774421447.617818,31
1774421447.6359947,30
1774421447.6499906,28
1774421447.6680238,27
1774421447.6840768,25
1774421447.6978927,24
1774421447.7160254,23
1774421447.7339585,22
1774421447.754533,21
1774421447.7688136,21
1774421447.784286,20
1774421447.8023362,20
1774421447.822931,20
1774421447.8326473,20
1774421447.858054,20
1774421447.8669817,22
1774421447.891996,27
1774421447.8980045,33
1774421447.921594,40
1774421447.930835,49
1774421447.9486382,58
1774421447.9675539,65
1774421447.9877603,69
1774421448.0073667,71
1774421448.019666,71
1774421448.0368578,69
1774421448.051517,66
1774421448.067454,63
1774421448.0826914,59
1774421448.0987043,56
1774421448.114631,53
1774421448.137503,50
1774421448.1616116,47
1774421448.168815,45
1774421448.191273,43
1774421448.2009525,42
1774421448.233945,41
1774421448.2343652,40
1774421448.255221,40
1774421448.265569,40
1774421448.282159,40
1774421448.2973795,39
1774421448.3210776,38
1774421448.3371055,36
1774421448.3580143,35
1774421448.366046,33
1774421448.3887365,32
1774421448.401668,30
1774421448.4209747,28
1774421448.4337242,27
1774421448.451914,25
1774421448.4643705,24
1774421448.485263,23
1774421448.5120833,22
1774421448.5220528,21
1774421448.5322263,21
1774421448.5521019,20
1774421448.5679712,20
1774421448.5936391,20
1774421448.6011121,20
1774421448.6198308,21
1774421448.6355097,24
1774421448.6581392,29
1774421448.6650372,36
1774421448.6869853,44
1774421448.6995392,53
1774421448.725434,61
1774421448.7350051,66
1774421448.7509553,70
1774421448.7704554,70
1774421448.7843397,69
1774421448.8056247,66
1774421448.8145497,62
1774421448.8414824,59
1774421448.8567111,55
1774421448.8701758,52
1774421448.8886547,49
1774421448.9047887,46
1774421448.9250526,43
1774421448.9387968,42
1774421448.9575245,40
1774421448.9725513,40
1774421448.9894679,40
1774421449.002288,40
1774421449.0176306,40
1774421449.032465,39
1774421449.0606825,39
1774421449.0664444,38
1774421449.0854335,37
1774421449.0973427,35
1774421449.1208239,34
1774421449.1326506,32
1774421449.1485872,31
1774421449.1646945,29
1774421449.1815066,28
1774421449.2020364,26
1774421449.2249584,25
1774421449.2355983,24
1774421449.2580845,23
1774421449.271416,22
1774421449.2809973,21
1774421449.3009331,21
1774421449.3247006,20
1774421449.34064,20
1774421449.3565474,21
1774421449.3696513,23
1774421449.3859706,28
1774421449.400892,34
1774421449.4205728,41
1774421449.433655,50
1774421449.4525328,58
1774421449.4667015,65
1774421449.488192,69
1774421449.49863,70
1774421449.5156915,69
1774421449.532,67
1774421449.5478187,63
1774421449.5747194,59
1774421449.583636,55
1774421449.6080053,52
1774421449.6247368,48
1774421449.6413667,45
1774421449.6581757,43
1774421449.6756823,41
1774421449.6866148,40
1774421449.7090898,40
1774421449.7168844,39
1774421449.7315412,39
1774421449.751408,39
1774421449.7704096,39
1774421449.7854476,39
1774421449.801434,38
1774421449.8175771,37
1774421449.8335683,36
1774421449.849522,34
1774421449.8656495,33
1774421449.8905053,31
1774421449.8975236,30
1774421449.9268699,28
1774421449.9365294,26
1774421449.9615512,25
1774421449.9747832,24
1774421449.9810433,23
1774421450.0019557,22
1774421450.0177777,21
1774421450.032496,21
1774421450.0567634,20
1774421450.0674381,20
1774421450.087854,20
1774421450.1083014,22
1774421450.1197586,26
1774421450.1347644,32
1774421450.1506631,40
1774421450.1674569,48
1774421450.1887445,57
1774421450.2021947,65
1774421450.2171288,70
1774421450.233341,72
1774421450.2591035,72
1774421450.2645993,70
1774421450.2811863,67
1774421450.297369,63
1774421450.3147683,59
1774421450.33482,55
1774421450.3571858,51
1774421450.3715153,48
1774421450.3882542,45
1774421450.3986251,43
1774421450.4203718,41
1774421450.431963,40
1774421450.4523497,40
1774421450.468368,40
1774421450.4843302,40
1774421450.5004137,40
1774421450.516366,40
1774421450.5325515,39
1774421450.5491416,38
1774421450.5690994,37
1774421450.5916376,35
1774421450.602765,34
1774421450.6225774,32
1774421450.6336932,30
1774421450.6545393,29
1774421450.6669726,27
1774421450.6820297,26
1774421450.7009046,24
1774421450.7199266,23
1774421450.730618,22
1774421450.7563822,21
1774421450.7664766,21
1774421450.7860487,20
1774421450.7973685,20
1774421450.8176248,19
1774421450.8376842,20
1774421450.8565056,22
1774421450.8746269,27
1774421450.888338,34
1774421450.9028535,41
1774421450.914547,51
1774421450.9323268,60
1774421450.9514308,68
1774421450.9697733,73
1774421450.9868414,75
1774421450.9995024,75
1774421451.0245829,72
1774421451.0331051,69
1774421451.058304,65
1774421451.0649366,61
1774421451.0903327,57
1774421451.097281,53
1774421451.1251419,50
1774421451.138442,47
1774421451.154455,45
1774421451.1703513,43
1774421451.1855361,41
1774421451.2114415,41
1774421451.221509,40
1774421451.2347407,40
1774421451.2541976,40
1774421451.2640762,40
1774421451.2815511,40
1774421451.297673,39
1774421451.3207908,37
1774421451.3409235,36
1774421451.3581607,34
1774421451.370926,32
1774421451.3912468,31
1774421451.40141,29
1774421451.4234366,27
1774421451.4328177,26
1774421451.4530606,24
1774421451.4661994,23
1774421451.4838364,22
1774421451.4971812,21
1774421451.5165963,20
1774421451.5371757,20
1774421451.553091,19
1774421451.5639284,19
1774421451.5844622,19
1774421451.5996065,21
1774421451.6160157,24
1774421451.634516,30
1774421451.6540642,38
1774421451.6732278,47
1774421451.6887598,57
1774421451.7052672,66
1774421451.720703,72
1774421451.7363753,75
1774421451.752872,76
1774421451.7699575,74
1774421451.7896202,71
1774421451.8027747,67
1774421451.8217995,63
1774421451.8376195,59
1774421451.8535414,55
1774421451.8650758,52
1774421451.885524,49
1774421451.8978364,46
1774421451.9176476,44
1774421451.932515,42
1774421451.949806,41
1774421451.9648273,40
1774421451.9840257,40
1774421452.001534,40
1774421452.0173044,40
1774421452.0305815,40
1774421452.0487242,39
1774421452.06438,38
1774421452.0835183,36
1774421452.0976772,35
1774421452.1154695,33
1774421452.1412895,31
1774421452.1519065,30
1774421452.1672566,28
1774421452.1887057,26
1774421452.2002473,25
1774421452.2216334,23
1774421452.2327754,22
1774421452.2537253,21
1774421452.26554,21
1774421452.2808332,20
1774421452.2971625,19
1774421452.3175645,19
1774421452.3353925,19
1774421452.3495905,19
1774421452.3657944,22
1774421452.3823204,27
1774421452.4080112,34
1774421452.4201856,42
1774421452.433445,52
1774421452.4579926,61
1774421452.4728637,69
1774421452.4887273,73
1774421452.498594,75
1774421452.521598,74
1774421452.532979,72
1774421452.5552197,68
1774421452.5654497,64
1774421452.5872169,59
1774421452.602179,55
1774421452.619282,51
1774421452.633584,47
1774421452.6501322,44
1774421452.666191,42
1774421452.684817,41
1774421452.6971471,40
1774421452.7197342,40
1774421452.7337434,40
1774421452.7493534,40
1774421452.771502,40
1774421452.7829075,40
1774421452.7993193,40
1774421452.8190615,40
1774421452.8375282,39
1774421452.8494742,37
1774421452.868435,35
1774421452.883073,34
1774421452.8982375,32
1774421452.919751,30
1774421452.93163,29
1774421452.950488,27
1774421452.9693654,26
1774421452.983953,24
1774421452.9987955,23
1774421453.0199895,23
1774421453.0305839,22
1774421453.057144,21
1774421453.0712912,21
1774421453.0918508,22
1774421453.0982385,25
1774421453.1174452,31
1774421453.1304884,38
1774421453.15786,46
1774421453.1723807,56
1774421453.1896062,65
1774421453.2055485,71
1774421453.2299304,75
1774421453.2305012,76
1774421453.2535079,75
1774421453.267132,72
1774421453.280974,68
1774421453.2976882,63
1774421453.3143818,59
1774421453.333582,55
1774421453.3513656,51
1774421453.3655012,48
1774421453.3835468,45
1774421453.4022942,43
1774421453.4284863,41
1774421453.434887,40
1774421453.4580262,40
1774421453.4649856,40
1774421453.492155,40
1774421453.4970827,40
1774421453.5225713,40
1774421453.532062,40
1774421453.5567045,39
1774421453.572396,37
1774421453.588595,36
1774421453.600252,34
1774421453.6214416,32
1774421453.6348872,30
1774421453.6479955,29
1774421453.6701949,27
1774421453.690358,26
1774421453.699128,24
1774421453.7231152,23
1774421453.7355928,22
1774421453.7549531,22
1774421453.7679663,21
1774421453.7859185,21
1774421453.8007083,20
1774421453.8212986,22
1774421453.8342853,25
1774421453.8580573,30
1774421453.8670607,38
1774421453.8820288,47
1774421453.8970547,57
1774421453.918441,66
1774421453.937903,73
1774421453.9529777,77
1774421453.9676247,78
1774421453.9820695,77
1774421453.998918,74
1774421454.018031,70
1774421454.0341148,66
1774421454.0502036,62
1774421454.0706947,58
1774421454.0813713,54
1774421454.097372,51
1774421454.1146007,48
1774421454.1325343,45
1774421454.1509094,43
1774421454.1654212,42
1774421454.192612,41
1774421454.2001653,41
1774421454.2213,41
1774421454.235122,40
1774421454.2552736,40
1774421454.2637525,40
1774421454.281205,39
1774421454.2970335,37
1774421454.31965,36
1774421454.3319166,34
1774421454.3512545,32
1774421454.3637006,31
1774421454.3823802,29
1774421454.3970397,27
1774421454.4171176,26
1774421454.4365678,24
1774421454.4492922,23
1774421454.4658377,22
1774421454.4823875,21
1774421454.500429,21
1774421454.5186596,20
1774421454.5373366,20
1774421454.5488234,21
1774421454.5700161,24
1774421454.588687,29
1774421454.5975132,36
1774421454.6180687,44
1774421454.6338053,54
1774421454.6535802,63
1774421454.6660986,70
1774421454.6862278,75
1774421454.6981995,76
1774421454.718084,75
1774421454.7328475,73
1774421454.7496045,69
1774421454.7644596,65
1774421454.7847145,60
1774421454.8080492,56
1774421454.8235955,53
1774421454.8374805,49
1774421454.8563418,46
1774421454.8703191,44
1774421454.888209,42
1774421454.9006221,41
1774421454.9216745,40
1774421454.9358847,40
1774421454.9538379,40
1774421454.9672506,40
1774421454.9880826,40
1774421454.9994097,40
1774421455.0196333,39
1774421455.032899,38
1774421455.0526962,36
1774421455.063791,34
1774421455.0827768,33
1774421455.097003,31
1774421455.1148543,29
1774421455.1431634,28
1774421455.153226,26
1774421455.166453,25
1774421455.188924,24
1774421455.2032099,23
1774421455.215527,22
1774421455.2326176,22
1774421455.253491,21
1774421455.26374,22
1774421455.2811706,24
1774421455.2994795,28
1774421455.3197594,34
1774421455.3378084,42
1774421455.3514457,51
1774421455.3674116,60
1774421455.383464,68
1774421455.3994415,73
1774421455.4243743,74
1774421455.43247,74
1774421455.4474888,71
1774421455.464794,67
1774421455.48233,63
1774421455.49776,59
1774421455.5247953,54
1774421455.531771,50
1774421455.5594633,47
1774421455.566501,44
1774421455.5915174,41
1774421455.605122,40
1774421455.6143506,40
1774421455.634034,39
1774421455.6536453,40
1774421455.673892,40
1774421455.6867678,40
1774421455.70401,39
1774421455.7187867,39
1774421455.7349083,38
1774421455.7531862,36
1774421455.768144,35
1774421455.7827144,33
1774421455.7988818,31
1774421455.8149748,29
1774421455.8323028,28
1774421455.8472466,26
1774421455.8647938,25
1774421455.8921046,23
1774421455.8973696,22
1774421455.9238791,21
1774421455.9304676,20
1774421455.9587567,20
1774421455.968986,19
1774421455.9906893,19
1774421455.9969614,20
1774421456.0226636,22
1774421456.03886,27
1774421456.054701,34
1774421456.0662546,42
1774421456.0867019,52
1774421456.103067,62
1774421456.118818,70
1774421456.1350837,75
1774421456.1507308,77
1774421456.1687336,76
1774421456.1826525,74
1774421456.1973097,70
1774421456.214922,66
1774421456.231585,62
1774421456.2481365,58
1774421456.2643845,54
1774421456.281252,50
1774421456.2969499,47
1774421456.314039,44
1774421456.3316915,42
1774421456.3542414,41
1774421456.369993,40
1774421456.3804615,40
1774421456.3999999,40
1774421456.4246037,40
1774421456.435466,40
1774421456.451484,39
1774421456.467293,38
1774421456.4888992,37
1774421456.4986918,35
1774421456.5145626,34
1774421456.5361335,32
1774421456.5551386,30
1774421456.574669,28
1774421456.5913002,26
1774421456.6007104,25
1774421456.6231265,23
1774421456.6413355,22
1774421456.6514406,21
1774421456.668721,20
1774421456.6901376,19
1774421456.6975374,19
1774421456.7224696,18
1774421456.733315,18
1774421456.760202,18
1774421456.7703645,20
1774421456.786497,24
1774421456.798183,31
1774421456.8177576,39
1774421456.8336618,48
1774421456.8485518,58
1774421456.865453,67
1774421456.8815658,73
1774421456.89757,76
1774421456.9142356,76
1774421456.9353614,74
1774421456.9512,70
1774421456.9709837,66
1774421456.9904907,62
1774421457.0003862,57
1774421457.0221694,53
1774421457.0324986,50
1774421457.0559063,46
1774421457.0657434,44
1774421457.0879328,41
1774421457.099447,40
1774421457.1199126,40
1774421457.1321354,40
1774421457.15215,40
1774421457.1660035,40
1774421457.1840484,40
1774421457.2000153,39
1774421457.2187803,38
1774421457.2414641,37
1774421457.2520578,36
1774421457.2642224,34
1774421457.2817357,33
1774421457.2973962,31
1774421457.3229604,29
1774421457.341346,27
1774421457.355394,26
1774421457.3747382,24
1774421457.3882437,23
1774421457.4018981,22
1774421457.4159327,21
1774421457.433818,20
1774421457.4514291,20
1774421457.4648337,19
1774421457.4865742,19
1774421457.4977012,20
1774421457.5223465,23
1774421457.5302365,28
1774421457.5504494,36
1774421457.5663884,44
1774421457.5809684,54
1774421457.5984175,63
1774421457.6144269,70
1774421457.63061,74
1774421457.6602428,75
1774421457.6746879,73
1774421457.688749,70
1774421457.7068925,66
1774421457.721585,61
1774421457.7390404,56
1774421457.7549734,52
1774421457.7709665,48
1774421457.7905335,44
1774421457.800549,41
1774421457.8213937,40
1774421457.8331318,39
1774421457.851423,38
1774421457.8659241,38
1774421457.8857093,39
1774421457.901188,39
1774421457.917783,39
1774421457.9302394,39
1774421457.9523745,38
1774421457.964919,38
1774421457.980857,36
1774421457.997021,35
1774421458.0248961,33
1774421458.0312972,31
1774421458.048991,29
1774421458.0727808,28
1774421458.0873706,26
1774421458.103468,25
1774421458.1137497,23
1774421458.1392908,22
1774421458.1532054,21
1774421458.165092,20
1774421458.1877658,20
1774421458.2028565,19
1774421458.2191432,20
1774421458.234925,23
1774421458.250973,28
1774421458.2635486,35
1774421458.2807493,43
1774421458.297132,53
1774421458.322367,63
1774421458.340853,70
1774421458.3587692,75
1774421458.3749182,77
1774421458.3812814,76
1774421458.4091053,73
1774421458.4204473,69
1774421458.440774,64
1774421458.4564323,60
1774421458.4727035,55
1774421458.4892082,51
1774421458.5050614,47
1774421458.5209754,44
1774421458.5430286,42
1774421458.552656,40
1774421458.5680418,40
1774421458.5854084,39
1774421458.599905,39
1774421458.616045,39
1774421458.6318488,39
1774421458.6478913,39
1774421458.6645288,38
1774421458.6808338,37
1774421458.6968338,36
1774421458.723316,35
1774421458.7322388,33
1774421458.7510395,31
1774421458.7737358,29
1774421458.78148,28
1774421458.7980454,26
1774421458.8214078,24
1774421458.8360069,23
1774421458.853472,22
1774421458.8728466,21
1774421458.885262,20
1774421458.9007041,19
1774421458.924956,18
1774421458.9318693,18
1774421458.9538193,18
1774421458.9692335,21
1774421458.9895272,25
1774421459.0032988,33
1774421459.0230331,41
1774421459.0328786,51
1774421459.0536332,62
1774421459.0694945,70
1774421459.0916765,75
1774421459.0968306,78
1774421459.1232,77
1774421459.133871,75
1774421459.1505055,71
1774421459.1653843,66
1774421459.1873293,62
1774421459.1991844,57
1774421459.216398,53
1774421459.2318416,49
1774421459.251178,46
1774421459.2675767,43
1774421459.2805932,41
1774421459.2983274,40
1774421459.3160658,40
1774421459.3413427,39
1774421459.3580883,39
1774421459.366147,39
1774421459.3848274,39
1774421459.4052563,39
1774421459.4239593,38
1774421459.433086,37
1774421459.4502325,36
1774421459.4647386,34
1774421459.483442,33
1774421459.4968307,31
1774421459.521454,29
1774421459.5318596,27
1774421459.5483859,26
1774421459.5661933,25
1774421459.582539,23
1774421459.6006694,22
1774421459.6166556,21
1774421459.631749,21
1774421459.6481576,20
1774421459.6637306,20
1774421459.6803548,21
1774421459.700165,25
1774421459.7209404,32
1774421459.7413757,40
1774421459.7570367,49
1774421459.765794,59
1774421459.786429,67
1774421459.8008373,73
1774421459.814905,76
1774421459.8329792,76
1774421459.8556902,74
1774421459.8649006,70
1774421459.8919752,66
1774421459.8970091,61
1774421459.917946,56
1774421459.9304996,52
1774421459.9519076,48
1774421459.9661431,45
1774421459.980628,42
1774421459.9980693,40
1774421460.0141048,40
1774421460.0302758,40
1774421460.0516288,40
1774421460.0693305,40
1774421460.0874565,40
1774421460.0994918,40
1774421460.1253943,40
1774421460.1349485,39
1774421460.1537046,38
1774421460.1687179,37
1774421460.1847386,35
1774421460.2078056,34
1774421460.213813,32
1774421460.2327611,30
1774421460.2509499,29
1774421460.2651384,27
1774421460.2804987,26
1774421460.2973292,24
1774421460.3142266,23
1774421460.3301897,23
1774421460.352337,22
1774421460.366974,22
1774421460.3917644,25
1774421460.4032278,30
1774421460.4148667,37
1774421460.4378445,45
1774421460.4533625,55
1774421460.4643066,64
1774421460.4849675,70
1774421460.5046842,74
1774421460.5206726,75
1774421460.53205,73
1774421460.5515883,70
1774421460.5681808,66
1774421460.585136,62
1774421460.6011207,57
1774421460.6237333,53
1774421460.6331828,49
1774421460.6497462,45
1774421460.6648407,43
1774421460.6813624,40
1774421460.6971762,40
1774421460.720508,39
1774421460.730007,39
1774421460.754398,40
1774421460.7661757,40
1774421460.7857137,40
1774421460.8026807,40
1774421460.8236969,39
1774421460.8368711,38
1774421460.8496587,37
1774421460.8710585,35
1774421460.8814783,33
1774421460.9026048,32
1774421460.919906,30
1774421460.9338858,28
1774421460.9491649,27
1774421460.9675899,25
1774421460.9849017,24
1774421460.9977355,23
1774421461.014457,22
1774421461.0320182,22
1774421461.0491736,22
1774421461.0647094,24
1774421461.0841782,28
1774421461.0967288,35
1774421461.1136653,42
1774421461.1300898,52
1774421461.158044,61
1774421461.165895,69
1774421461.1915033,74
1774421461.2025614,76
1774421461.222975,75
1774421461.2379727,73
1774421461.2562337,69
1774421461.2633927,65
1774421461.2811482,60
1774421461.297756,56
1774421461.3201873,52
1774421461.3321533,49
1774421461.3536987,45
1774421461.3682237,43
1774421461.3842154,40
1774421461.4004776,40
1774421461.4220946,39
1774421461.432729,39
1774421461.452125,39
1774421461.4642725,39
1774421461.4953287,39
1774421461.497413,38
1774421461.5217888,37
1774421461.5344286,36
1774421461.5607693,35
1774421461.5636616,33
1774421461.5869153,31
1774421461.598224,30
1774421461.6195493,28
1774421461.6323018,26
1774421461.6543477,25
1774421461.6719193,23
1774421461.6863916,22
1774421461.701393,21
1774421461.7177413,21
1774421461.7334523,20
1774421461.7495503,20
1774421461.7653966,21
1774421461.7843182,25
1774421461.7974918,31
1774421461.8163598,39
1774421461.8347094,47
1774421461.860789,57
1774421461.8665915,66
1774421461.8932974,72
1774421461.9022279,75
1774421461.9239671,76
1774421461.932689,74
1774421461.955942,71
1774421461.9633472,67
1774421461.9930127,63
1774421462.0039895,59
1774421462.021906,55
1774421462.0361075,52
1774421462.054212,48
1774421462.068071,45
1774421462.0839214,43
1774421462.1022792,41
1774421462.1162848,40
1774421462.1381116,39
1774421462.1520605,39
1774421462.1640923,38
1774421462.1840897,38
1774421462.1989918,37
1774421462.2177548,37
1774421462.2316933,36
1774421462.2488549,34
1774421462.2649255,33
1774421462.2809412,31
1774421462.2967772,29
1774421462.3213596,28
1774421462.3346155,26
1774421462.3561199,24
1774421462.3634884,23
1774421462.3862946,22
1774421462.401366,21
1774421462.418054,20
1774421462.4380896,19
1774421462.455344,19
1774421462.4670985,18
1774421462.4814994,18
1774421462.4990983,19
1774421462.5209281,22
1774421462.531998,28
1774421462.5587854,35
1774421462.5731194,44
1774421462.586202,54
1774421462.6005557,63
1774421462.6238518,70
1774421462.6319287,74
1774421462.6565707,75
1774421462.6666148,73
1774421462.686841,70
1774421462.6998782,67
1774421462.7199652,63
1774421462.732682,59
1774421462.751909,55
1774421462.7642522,51
1774421462.7818487,48
1774421462.7991445,45
1774421462.8215516,42
1774421462.8316538,40
1774421462.8476896,40
1774421462.8637116,39
1774421462.887145,38
1774421462.9086382,38
1774421462.9216506,38
1774421462.9302635,37
1774421462.9485004,36
1774421462.964656,35
1774421462.9860973,34
1774421463.0000534,33
1774421463.0222716,31
1774421463.0326545,29
1774421463.0545838,28
1774421463.0650375,26
1774421463.0865943,24
1774421463.0967982,23
1774421463.1172287,22
1774421463.1345816,21
1774421463.1505506,20
1774421463.1666718,19
1774421463.1826031,18
1774421463.1979494,18
1774421463.214007,18
1774421463.2300668,17
1774421463.2502944,18
1774421463.2634757,20
1774421463.2801907,25
1774421463.2988164,31
1774421463.3150277,40
1774421463.3305526,49
1774421463.3566737,58
1774421463.3645983,66
1774421463.3817432,71
1774421463.403752,73
1774421463.4170365,72
1774421463.4320304,70
1774421463.4522738,66
1774421463.4672978,62
1774421463.484885,58
1774421463.4967582,54
1774421463.516897,50
1774421463.5298738,47
1774421463.5485651,44
1774421463.5647995,41
1774421463.5821342,40
1774421463.5968843,39
1774421463.6195571,38
1774421463.6413193,37
1774421463.652424,37
1774421463.671807,37
1774421463.6893582,36
1774421463.6975982,36
1774421463.7224214,35
1774421463.7358866,34
1774421463.7540596,32
1774421463.771605,31
1774421463.782961,29
1774421463.7983425,27
1774421463.818917,26
1774421463.8332503,24
1774421463.8502996,23
1774421463.8656118,22
1774421463.8823893,21
1774421463.8973174,20
1774421463.9259827,19
1774421463.9298306,18
1774421463.9482207,18
1774421463.9665103,18
1774421463.9813483,18
1774421463.9975643,19
1774421464.0148447,23
1774421464.0324836,29
1774421464.0518486,37
1774421464.06772,46
1774421464.089078,55
1774421464.1008768,63
1774421464.1215167,68
1774421464.1369398,70
1774421464.151235,70
1774421464.1670635,67
1774421464.180241,63
1774421464.202383,59
1774421464.2167404,55
1774421464.231775,51
1774421464.247525,47
1774421464.2652466,43
1774421464.2802353,40
1774421464.297152,39
1774421464.3135464,37
1774421464.330942,36
1774421464.3498483,36
1774421464.3648877,36
1774421464.3821812,36
1774421464.397895,36
1774421464.4142928,36
1774421464.4312537,35
1774421464.4483092,34
1774421464.4683607,33
1774421464.4826434,32
1774421464.5003889,31
1774421464.5307684,29
1774421464.530981,27
1774421464.5484278,26
1774421464.5638175,24
1774421464.5807006,23
1774421464.6015222,21
1774421464.6168015,20
1774421464.6324294,19
1774421464.649758,19
1774421464.665102,18
1774421464.6846519,18
1774421464.696918,19
1774421464.7183223,22
1774421464.7318747,27
1774421464.7518525,34
1774421464.7661214,42
1774421464.784203,52
1774421464.8001893,60
1774421464.8194053,66
1774421464.8354661,70
1774421464.8550544,70
1774421464.8674784,68
1774421464.8888474,65
1774421464.900934,61
1774421464.9191372,57
1774421464.935759,53
1774421464.9521515,49
1774421464.9730327,46
1774421464.9858115,42
1774421465.0103564,40
1774421465.0224264,39
1774421465.034576,37
1774421465.0573714,36
1774421465.0651574,36
1774421465.0861852,36
1774421465.098789,36
1774421465.1214056,36
1774421465.1297956,36
1774421465.1534028,35
1774421465.169498,34
1774421465.188885,33
1774421465.2020223,31
1774421465.2175076,30
1774421465.2335844,28
1774421465.2542033,26
1774421465.2655523,25
1774421465.2803893,23
1774421465.2979498,22
1774421465.3181512,21
1774421465.3344429,20
1774421465.3530958,19
1774421465.3635292,18
1774421465.3802416,18
1774421465.4045167,18
1774421465.4177232,20
1774421465.4386194,23
1774421465.4573874,30
1774421465.4670029,38
1774421465.4913642,46
1774421465.5006738,56
1774421465.5213711,64
1774421465.53927,69
1774421465.5524411,72
1774421465.5647364,71
1774421465.5834322,69
1774421465.5967948,66
1774421465.6154962,62
1774421465.6314197,58
1774421465.6479712,55
1774421465.6634557,51
1774421465.679835,48
1774421465.7036824,45
1774421465.7143168,42
1774421465.7352939,40
1774421465.7500963,39
1774421465.768518,38
1774421465.7842524,38
1774421465.7970498,38
1774421465.8168626,37
1774421465.8393,37
1774421465.8505774,36
1774421465.8651688,35
1774421465.89319,34
1774421465.8968785,33
1774421465.91917,31
1774421465.9297798,30
1774421465.9514363,28
1774421465.965651,26
1774421465.983934,25
1774421465.9978185,23
1774421466.0246973,22
1774421466.0373645,21
1774421466.0585327,20
1774421466.073216,19
1774421466.093714,18
1774421466.1028118,18
1774421466.1238444,18
1774421466.1363187,20
1774421466.1531212,24
1774421466.1746137,31
1774421466.1847024,39
1774421466.2058904,46
1774421466.217155,55
1774421466.2378075,61
1774421466.2517207,65
1774421466.2647927,67
1774421466.2804036,66
1774421466.2971895,64
1774421466.3178082,61
1774421466.331794,57
1774421466.3481076,54
1774421466.3645523,50
1774421466.3830066,47
1774421466.3967822,44
1774421466.4216263,42
1774421466.431776,40
1774421466.4494052,38
1774421466.4698396,37
1774421466.488598,36
1774421466.500767,36
1774421466.5215206,35
1774421466.5405927,35
1774421466.5464175,35
1774421466.572623,34
1774421466.5864568,33
1774421466.599237,32
1774421466.6171167,30
1774421466.6343434,29
1774421466.6526136,27
1774421466.6688046,25
1774421466.6837385,24
1774421466.6987886,22
1774421466.7147639,21
1774421466.7348928,20
1774421466.7575932,19
1774421466.7630389,18
1774421466.7932322,17
1774421466.8066087,16
1774421466.8245685,16
1774421466.8413298,16
1774421466.8523152,18
1774421466.8729842,22
1774421466.885532,28
1774421466.9062307,35
1774421466.920319,43
1774421466.9350421,51
1774421466.9505327,57
1774421466.9684057,61
1774421466.986187,63
1774421466.9999695,62
1774421467.0173738,60
1774421467.0333545,57
1774421467.0487099,54
1774421467.0650523,51
1774421467.0808809,48
1774421467.0969234,45
1774421467.1146548,42
1774421467.1296525,40
1774421467.1517467,38
1774421467.173037,37
1774421467.1845486,35
1774421467.1964426,35
1774421467.2215981,34
1774421467.239901,34
1774421467.2550557,34
1774421467.2644558,33
1774421467.2801418,33
1774421467.299535,32
1774421467.3196588,30
1774421467.3356419,29
1774421467.3551621,27
1774421467.3676875,26
1774421467.3847158,24
1774421467.4065824,23
1774421467.4188292,21
1774421467.430831,20
1774421467.4468021,19
1774421467.4665973,18
1774421467.493783,18
1774421467.4967844,17
1774421467.52604,17
1774421467.5296595,16
1774421467.5510902,16
1774421467.5719798,17
1774421467.5893874,19
1774421467.6013477,23
1774421467.6211655,29
1774421467.6368225,37
1774421467.6530666,44
1774421467.6702304,52
1774421467.6841118,58
1774421467.7001793,62
1774421467.719812,63
1774421467.7327523,63
1774421467.748366,61
1774421467.7647362,58
1774421467.7802355,55
1774421467.7977536,52
1774421467.8194516,49
1774421467.8412998,46
1774421467.8578904,43
1774421467.865662,41
1774421467.8911328,39
1774421467.901447,38
1774421467.9233222,37
1774421467.9304779,36
1774421467.9552507,36
1774421467.9656715,36
1774421467.9870448,35
1774421468.003031,35
1774421468.019084,34
1774421468.0307682,33
1774421468.0523317,32
1774421468.0664084,30
1774421468.0823486,29
1774421468.1015594,28
1774421468.114712,26
1774421468.1305041,25
1774421468.1466918,23
1774421468.171873,22
1774421468.1841228,21
1774421468.1979833,20
1774421468.217309,19
1774421468.2389593,19
1774421468.2581115,18
1774421468.2646873,18
1774421468.2797148,18
1774421468.2966957,18
1774421468.3132923,19
1774421468.3297737,21
1774421468.3542957,26
1774421468.3702822,33
1774421468.3816757,40
1774421468.3967247,48
1774421468.4245713,56
1774421468.4333224,61
1774421468.4541261,65
1774421468.465605,65
1774421468.4811952,64
1774421468.4981108,62
1774421468.5133023,59
1774421468.541555,55
1774421468.555823,52
1774421468.5641398,49
1774421468.5854115,46
1774421468.6030805,43
1774421468.617941,41
1774421468.6391184,40
1774421468.6521828,39
1774421468.6704972,38
1774421468.6867776,38
1774421468.696571,38
1774421468.7167342,38
1774421468.7296052,38
1774421468.7501256,37
1774421468.7644277,36
1774421468.7912285,35
1774421468.7992022,34
1774421468.8151338,32
1774421468.8310816,31
1774421468.8474762,29
1774421468.8629825,28
1774421468.8864825,26
1774421468.8985717,25
1774421468.9200475,24
1774421468.9380565,22
1774421468.9516492,22
1774421468.9638963,21
1774421468.983224,20
1774421469.0026083,20
1774421469.016716,19
1774421469.0344815,19
1774421469.05323,19
1774421469.0647817,21
1774421469.0856187,24
1774421469.0967762,30
1774421469.117738,37
1774421469.1298587,45
1774421469.1471434,53
1774421469.168294,61
1774421469.187674,66
1774421469.203043,69
1774421469.2141702,70
1774421469.2318408,68
1774421469.2516665,65
1774421469.2687685,62
1774421469.2805245,58
1774421469.2967386,55
1774421469.3133407,52
1774421469.3366506,49
1774421469.3539083,46
1774421469.3716269,43
1774421469.3849132,42
1774421469.4018962,40
1774421469.4180183,40
1774421469.4324663,40
1774421469.4497287,40
1774421469.4693322,39
1774421469.486032,39
1774421469.5007157,38
1774421469.517572,37
1774421469.5297594,36
1774421469.547895,35
1774421469.564657,33
1774421469.589224,31
1774421469.5977535,30
1774421469.6138682,28
1774421469.637603,26
1774421469.6562395,25
1774421469.6755135,24
1774421469.6835914,23
1774421469.7056892,22
1774421469.7209544,21
1774421469.7396777,20
1774421469.7464776,19
1774421469.7701535,19
1774421469.7870917,19
1774421469.8013072,18
1774421469.821567,19
1774421469.836902,20
1774421469.848709,24
1774421469.8696723,30
1774421469.8858178,38
1774421469.8974602,46
1774421469.9150567,55
1774421469.9295552,63
1774421469.9487576,68
1774421469.9702659,71
1774421469.9836528,71
1774421469.9962065,69
1774421470.0247688,66
1774421470.0309894,62
1774421470.0546784,59
1774421470.070233,55
1774421470.0907574,52
1774421470.09909,48
1774421470.1178277,46
1774421470.1343148,43
1774421470.1520717,41
1774421470.1637797,40
1774421470.183603,40
1774421470.1965423,40
1774421470.2182739,40
1774421470.2341793,40
1774421470.2502317,39
1774421470.2631218,39
1774421470.280369,38
1774421470.2981038,37
1774421470.3138752,35
1774421470.3303466,34
1774421470.3463252,32
1774421470.362838,30
1774421470.3928947,29
1774421470.3962884,27
1774421470.4249458,26
1774421470.4378798,24
1774421470.452314,23
1774421470.468967,22
1774421470.4885912,21
1774421470.4977863,21
1774421470.5146077,20
1774421470.5330431,19
1774421470.5540938,19
1774421470.5701902,20
1774421470.5861514,23
1774421470.6020777,28
1774421470.6150553,35
1774421470.631939,43
1774421470.6501563,52
1774421470.6634936,60
1774421470.6804686,66
1774421470.696277,70
1774421470.7146897,71
1774421470.730249,69
1774421470.7540822,66
1774421470.7678447,63
1774421470.787806,59
1774421470.8004763,55
1774421470.822338,51
1774421470.8325868,47
1774421470.8509235,44
1774421470.8677874,42
1774421470.886668,40
1774421470.9017057,40
1774421470.9154072,39
1774421470.9296672,39
1774421470.953989,39
1774421470.9726534,40
1774421470.9815805,40
1774421470.9975202,39
1774421471.0157971,38
1774421471.0296886,37
1774421471.0517435,36
1774421471.0719526,35
1774421471.0847793,33
1774421471.096784,31
1774421471.1181228,30
1774421471.1301782,28
1774421471.146798,27
1774421471.1672502,25
1774421471.1875443,24
1774421471.198559,23
1774421471.2168646,22
1774421471.2314441,21
1774421471.2508476,20
1774421471.2652063,21
1774421471.2797148,22
1774421471.297339,26
1774421471.313376,32
1774421471.3294957,40
1774421471.3514326,48
1774421471.363714,58
1774421471.3845775,66
1774421471.4062858,71
1774421471.420596,74
1774421471.4425926,73
1774421471.4488263,71
1774421471.4716485,68
1774421471.4874706,64
1774421471.4963224,60
1774421471.5196183,56
1774421471.5305386,52
1774421471.5524719,49
1774421471.5649605,46
1774421471.5831645,44
1774421471.5987785,42
1774421471.6214862,41
1774421471.6307316,40
1774421471.652742,40
1774421471.6752245,40
1774421471.6843696,40
1774421471.699668,40
1774421471.7187793,40
1774421471.734229,39
1774421471.755212,38
1774421471.765159,37
1774421471.7852309,35
1774421471.8056972,33
1774421471.8172526,31
1774421471.8360043,30
1774421471.8487809,28
1774421471.8698614,27
1774421471.8913267,25
1774421471.8994071,24
1774421471.9178212,23
1774421471.932218,22
1774421471.9485624,22
1774421471.9695945,22
1774421471.9912562,23
1774421471.9969308,27
1774421472.02032,33
1774421472.0356283,40
1774421472.0580347,49
1774421472.0677483,58
1774421472.0902739,67
1774421472.1016595,73
1774421472.1236951,76
1774421472.133842,76
1774421472.152666,74
1774421472.1690784,71
1774421472.1870582,68
1774421472.2029438,64
1774421472.2194955,60
1774421472.2357316,56
1774421472.2487586,53
1774421472.2646232,50
1774421472.2797832,47
1774421472.2967415,45
1774421472.3131945,43
1774421472.3338673,42
1774421472.3580205,42
1774421472.3627987,41
1774421472.3888812,41
1774421472.4081378,41
1774421472.4248843,40
1774421472.4329398,40
1774421472.455792,38
1774421472.470075,37
1774421472.4869976,35
1774421472.5071268,33
1774421472.518816,32
1774421472.5346718,30
1774421472.5501819,28
1774421472.566696,27
1774421472.5818381,25
1774421472.60302,24
1774421472.6161635,23
1774421472.6309028,22
1774421472.6519632,22
1774421472.6671667,22
1774421472.6800191,24
1774421472.707895,28
1774421472.7175198,35
1774421472.7293713,42
1774421472.7587204,52
1774421472.765448,60
1774421472.7908196,67
1774421472.796014,72
1774421472.8217354,74
1774421472.8361363,73
1774421472.8547523,70
1774421472.8686025,67
1774421472.8800676,63
1774421472.9029098,60
1774421472.9187768,56
1774421472.934414,53
1774421472.9503372,50
1774421472.9666169,47
1774421472.9855936,44
1774421472.9990175,43
1774421473.0210724,42
1774421473.0303595,41
1774421473.0477276,40
1774421473.0686488,40
1774421473.0866363,40
1774421473.0967548,40
1774421473.1144762,40
1774421473.1293695,38
1774421473.1523147,37
1774421473.1627553,36
1774421473.1834693,34
1774421473.1986604,32
1774421473.2223308,31
1774421473.2302768,29
1774421473.253366,28
1774421473.2633886,26
1774421473.2796326,25
1774421473.297441,24
1774421473.3173912,24
1774421473.3332472,23
1774421473.3528972,24
1774421473.3655655,26
1774421473.3853707,31
1774421473.4109197,38
1774421473.4174714,45
1774421473.430468,54
1774421473.448139,62
1774421473.4681787,68
1774421473.4808571,71
1774421473.4995067,71
1774421473.524255,70
1774421473.5312219,67
1774421473.5565438,63
1774421473.5723798,60
1774421473.5883076,56
1774421473.596539,52
1774421473.6204543,49
1774421473.6363149,46
1774421473.652315,43
1774421473.668294,41
1774421473.6842682,40
1774421473.6988642,40
1774421473.7165282,40
1774421473.7388012,40
1774421473.748523,40
1774421473.7643552,40
1774421473.7821562,40
1774421473.7962892,39
1774421473.8152149,37
1774421473.83453,36
1774421473.8472273,34
1774421473.864398,32
1774421473.8812642,30
1774421473.8977683,29
1774421473.9259295,27
1774421473.9294457,26
1774421473.952561,25
1774421473.9626467,24
1774421473.98816,23
1774421473.9992082,22
1774421474.019515,22
1774421474.037139,23
1774421474.0502443,26
1774421474.0640538,31
1774421474.081345,39
1774421474.1002698,46
1774421474.1140063,56
1774421474.130106,64
1774421474.15712,69
1774421474.1661508,72
1774421474.1841216,72
1774421474.2018733,71
1774421474.2203634,68
1774421474.2369685,64
1774421474.2489886,61
1774421474.266092,57
1774421474.2798564,54
1774421474.2964027,50
1774421474.313383,48
1774421474.329857,45
1774421474.3513944,43
1774421474.3643289,41
1774421474.3820364,40
1774421474.3999133,40
1774421474.4162612,40
1774421474.4322815,40
1774421474.4491801,39
1774421474.464523,39
1774421474.4804363,38
1774421474.4970322,36
1774421474.517506,35
1774421474.5323544,33
1774421474.5521376,32
1774421474.569418,30
1774421474.585342,28
1774421474.6017215,27
1774421474.6166103,25
