timestamp,bvp
1774421202.6776206,50
1774421202.6942656,48
1774421202.710935,47
1774421202.7276335,46
1774421202.7442515,45
1774421202.7609162,44
1774421202.77888,43
1774421202.7942717,41
1774421202.8109384,40
1774421202.8276277,38
1774421202.844251,35
1774421202.8609507,33
1774421202.8776548,32
1774421202.8942764,30
1774421202.9109418,29
1774421202.927701,27
1774421202.9443579,26
1774421202.9615867,25
1774421202.9794016,24
1774421202.9945571,24
1774421203.0115626,23
1774421203.0283065,22
1774421203.0450647,21
1774421203.06098,20
1774421203.078418,19
1774421203.0943897,19
1774421203.111836,18
1774421203.1392524,17
1774421203.1460524,19
1774421203.1642308,23
1774421203.1873815,30
1774421203.2008855,38
1774421203.2138588,46
1774421203.2283607,54
1774421203.2448604,60
1774421203.2615206,63
1774421203.2786467,63
1774421203.2944179,62
1774421203.3113093,60
1774421203.3278654,59
1774421203.3449235,57
1774421203.361114,55
1774421203.378416,54
1774421203.3946502,52
1774421203.4195013,51
1774421203.4276278,49
1774421203.456748,48
1774421203.4609544,46
1774421203.4899156,46
1774421203.5029097,45
1774421203.521958,44
1774421203.5379438,43
1774421203.5469887,42
1774421203.5670352,41
1774421203.5781345,40
1774421203.6003697,38
1774421203.6159883,36
1774421203.6360118,35
1774421203.6479526,33
1774421203.664308,31
1774421203.6829116,30
1774421203.6962016,29
1774421203.711504,28
1774421203.728483,27
1774421203.7452743,26
1774421203.7629223,25
1774421203.77837,24
1774421203.7970934,23
1774421203.8134105,23
1774421203.829488,22
1774421203.8450096,21
1774421203.8611283,20
1774421203.8778253,21
1774421203.9020023,24
1774421203.9118814,30
1774421203.9290988,37
1774421203.9448383,44
1774421203.9626718,52
1774421203.9790154,58
1774421203.9963725,62
1774421204.0146973,63
1774421204.0299983,62
1774421204.0456746,61
1774421204.062028,59
1774421204.078582,57
1774421204.096947,55
1774421204.1109397,54
1774421204.1282203,52
1774421204.1476235,51
1774421204.166085,49
1774421204.178294,48
1774421204.1971748,47
1774421204.2152748,46
1774421204.2279844,45
1774421204.2455626,45
1774421204.2609775,44
1774421204.2790406,42
1774421204.2975752,41
1774421204.3137093,40
1774421204.3279731,39
1774421204.353794,37
1774421204.3721502,35
1774421204.3780258,33
1774421204.3941789,31
1774421204.4221504,29
1774421204.4374738,28
1774421204.451534,26
1774421204.4648025,25
1774421204.4790661,24
1774421204.4967482,23
1774421204.5126157,22
1774421204.533751,21
1774421204.552742,20
1774421204.5640826,19
1774421204.579408,19
1774421204.5955386,18
1774421204.6128933,18
1774421204.6284935,19
1774421204.647955,24
1774421204.660846,31
1774421204.6798663,39
1774421204.6959195,47
1774421204.7111485,55
1774421204.7334287,61
1774421204.7450404,64
1774421204.7704751,65
1774421204.78794,64
1774421204.8033168,62
1774421204.81659,61
1774421204.842379,60
1774421204.8487077,58
1774421204.8621635,57
1774421204.8779237,55
1774421204.9030766,54
1774421204.9169452,52
1774421204.9279416,50
1774421204.9557562,49
1774421204.9613197,48
1774421204.9780366,47
1774421204.9972131,46
1774421205.0140975,45
1774421205.0279844,44
1774421205.0471425,42
1774421205.0709925,41
1774421205.0775592,40
1774421205.1032863,38
1774421205.112674,36
1774421205.127577,34
1774421205.1530213,32
1774421205.1731505,30
1774421205.1890397,29
1774421205.2027857,28
1774421205.2162817,26
1774421205.2322476,25
1774421205.2473955,25
1774421205.2620752,24
1774421205.2837281,23
1774421205.3021085,22
1774421205.315695,21
1774421205.3299904,20
1774421205.348438,19
1774421205.362732,18
1774421205.3788226,17
1774421205.3950384,17
1774421205.4165273,17
1774421205.428559,21
1774421205.4474418,28
1774421205.4608128,36
1774421205.480918,44
1774421205.5027423,53
1774421205.517218,60
1774421205.536599,65
1774421205.5528164,66
1774421205.5677276,65
1774421205.5843337,64
1774421205.5999336,63
1774421205.615716,62
1774421205.628544,60
1774421205.6477778,59
1774421205.6640718,58
1774421205.6803868,56
1774421205.6943002,55
1774421205.7117372,53
1774421205.7316957,52
1774421205.7500737,50
1774421205.7620099,49
1774421205.7833943,48
1774421205.7973366,47
1774421205.8112926,46
1774421205.834499,45
1774421205.8498569,43
1774421205.8616545,41
1774421205.8853729,40
1774421205.8984334,38
1774421205.917443,36
1774421205.932312,35
1774421205.949432,33
1774421205.9648254,31
1774421205.9901085,30
1774421205.997212,28
1774421206.0129235,27
1774421206.0286438,26
1774421206.0446937,25
1774421206.0751398,24
1774421206.0895653,23
1774421206.103379,22
1774421206.118062,21
1774421206.1327014,20
1774421206.1562443,19
1774421206.1679456,18
1774421206.1775994,17
1774421206.1964056,16
1774421206.2123084,16
1774421206.2306025,17
1774421206.2445614,21
1774421206.260784,28
1774421206.280449,36
1774421206.294642,44
1774421206.3127167,53
1774421206.3325212,60
1774421206.3579247,64
1774421206.3694975,64
1774421206.380249,64
1774421206.3948946,62
1774421206.412858,60
1774421206.4305258,59
1774421206.4446669,57
1774421206.4674995,56
1774421206.4919624,54
1774421206.5026002,53
1774421206.512161,51
1774421206.5314171,49
1774421206.5511258,48
1774421206.5614455,47
1774421206.5886283,46
1774421206.601858,45
1774421206.6207633,44
1774421206.6287878,43
1774421206.6512978,41
1774421206.6617684,40
1774421206.6847668,38
1774421206.7005527,36
1774421206.716918,34
1774421206.7284405,33
1774421206.7487612,31
1774421206.7645416,30
1774421206.7978911,28
1774421206.7981377,27
1774421206.8208141,26
1774421206.8275623,25
1774421206.857253,24
1774421206.8618395,22
1774421206.878574,21
1774421206.8959045,20
1774421206.9184134,19
1774421206.9323628,18
1774421206.9505749,17
1774421206.9637115,16
1774421206.982514,15
1774421206.996255,17
1774421207.0148785,21
1774421207.0283968,28
1774421207.0495384,36
1774421207.060697,44
1774421207.0830085,53
1774421207.097298,59
1774421207.1133733,63
1774421207.1294413,63
1774421207.1454027,62
1774421207.161476,61
1774421207.1777227,59
1774421207.203125,58
1774421207.2116072,56
1774421207.2347918,55
1774421207.2444305,53
1774421207.2612278,51
1774421207.2779355,50
1774421207.2981822,48
1774421207.3126993,47
1774421207.329222,46
1774421207.3507566,45
1774421207.3637216,44
1774421207.378454,43
1774421207.3988745,42
1774421207.422472,40
1774421207.4299815,39
1774421207.4458992,37
1774421207.465781,35
1774421207.4782195,33
1774421207.5045228,31
1774421207.5188856,30
1774421207.5345352,28
1774421207.555875,26
1774421207.5670195,24
1774421207.5991995,23
1774421207.601919,21
1774421207.613434,20
1774421207.6355052,19
1774421207.6515403,18
1774421207.667444,17
1774421207.685179,16
1774421207.6995835,15
1774421207.7106853,15
1774421207.7316892,14
1774421207.7475605,16
1774421207.7636342,21
1774421207.7783575,29
1774421207.799034,38
1774421207.811832,46
1774421207.8276584,55
1774421207.855865,62
1774421207.8607295,65
1774421207.885327,65
1774421207.9068596,64
1774421207.9265869,63
1774421207.9274158,62
1774421207.9550838,60
1774421207.970929,59
1774421207.990346,57
1774421207.9979956,55
1774421208.0189338,54
1774421208.0348432,52
1774421208.0512662,50
1774421208.0616717,49
1774421208.0828683,48
1774421208.0960732,47
1774421208.1211026,46
1774421208.1308918,45
1774421208.1469276,44
1774421208.1631694,42
1774421208.1832597,40
1774421208.1952999,39
1774421208.2126544,37
1774421208.22806,36
1774421208.2448711,34
1774421208.2607033,32
1774421208.2792835,30
1774421208.3009636,29
1774421208.3147962,27
1774421208.3278215,26
1774421208.3461945,24
1774421208.3642213,23
1774421208.3772945,22
1774421208.400848,21
1774421208.420771,20
1774421208.4324968,19
1774421208.4478743,18
1774421208.4631045,17
1774421208.47916,16
1774421208.4984372,15
1774421208.514026,16
1774421208.5288742,21
1774421208.558886,28
1774421208.5647607,37
1774421208.589877,46
1774421208.5978034,55
1774421208.6177633,63
1774421208.6278973,67
1774421208.6531823,68
1774421208.6622818,67
1774421208.6838071,66
1774421208.693984,64
1774421208.7130423,63
1774421208.7336469,62
1774421208.747477,60
1774421208.7663965,58
1774421208.777558,57
1774421208.79818,55
1774421208.8136704,53
1774421208.8293796,52
1774421208.8456705,50
1774421208.867647,49
1774421208.887281,48
1774421208.8997326,47
1774421208.924143,46
1774421208.933441,45
1774421208.9562306,43
1774421208.964268,41
1774421208.9860153,40
1774421208.9979517,38
1774421209.0217648,36
1774421209.0288477,35
1774421209.051515,33
1774421209.0627367,32
1774421209.0833933,30
1774421209.0995166,29
1774421209.1216993,28
1774421209.1313088,26
1774421209.1473362,25
1774421209.1718068,24
1774421209.1920383,23
1774421209.198451,22
1774421209.2177322,21
1774421209.2273734,20
1774421209.2443125,19
1774421209.261381,18
1774421209.277952,17
1774421209.294275,17
1774421209.3202953,17
1774421209.3317685,20
1774421209.3551483,26
1774421209.368894,34
1774421209.383413,42
1774421209.39765,52
1774421209.4191651,60
1774421209.4287403,65
1774421209.4511068,67
1774421209.4606173,67
1774421209.4783626,66
1774421209.499291,64
1774421209.5110023,63
1774421209.5378346,61
1774421209.5467443,60
1774421209.5631301,58
1774421209.582669,56
1774421209.5952523,54
1774421209.6115386,53
1774421209.6273572,51
1774421209.6468673,50
1774421209.6681547,49
1774421209.6802852,48
1774421209.7073593,47
1774421209.7231734,46
1774421209.7372816,44
1774421209.7494462,42
1774421209.7653399,41
1774421209.7892725,40
1774421209.803843,38
1774421209.8211734,36
1774421209.829424,34
1774421209.8451018,33
1774421209.861029,31
1774421209.8772,30
1774421209.8947082,29
1774421209.91643,28
1774421209.931359,27
1774421209.946952,25
1774421209.96337,24
1774421209.9792333,23
1774421209.9952393,22
1774421210.0114598,21
1774421210.0305505,20
1774421210.0469046,19
1774421210.0679524,19
1774421210.0805776,18
1774421210.0959225,17
1774421210.1181805,17
1774421210.132331,16
1774421210.1447525,17
1774421210.1655896,22
1774421210.1805081,29
1774421210.198245,38
1774421210.215138,47
1774421210.228396,56
1774421210.2458777,63
1774421210.2623951,67
1774421210.2829092,67
1774421210.3005712,66
1774421210.3251092,64
1774421210.3396425,63
1774421210.3509526,61
1774421210.3608918,60
1774421210.392231,58
1774421210.4037063,56
1774421210.4164598,55
1774421210.4343762,53
1774421210.4558861,51
1774421210.4606395,50
1774421210.477644,49
1774421210.4953556,49
1774421210.5153344,48
1774421210.5304537,46
1774421210.5540283,45
1774421210.565334,43
1774421210.5842118,42
1774421210.5980628,40
1774421210.6163483,39
1774421210.632498,37
1774421210.6439672,35
1774421210.6642346,34
1774421210.6777108,32
1774421210.6953623,31
1774421210.7123678,29
1774421210.7282798,28
1774421210.7452953,27
1774421210.7624445,26
1774421210.7900736,25
1774421210.8045783,24
1774421210.8231852,23
1774421210.8329937,22
1774421210.8534446,21
1774421210.8678942,20
1774421210.8881717,19
1774421210.9009693,19
1774421210.9199922,20
1774421210.9274476,25
1774421210.9501927,32
1774421210.9664466,40
1774421210.9823031,48
1774421210.9982388,56
1774421211.011697,61
1774421211.0277715,64
1774421211.0439737,63
1774421211.0647051,62
1774421211.0771716,60
1774421211.1091864,58
1774421211.1251636,57
1774421211.1276486,55
1774421211.1536503,53
1774421211.1713908,51
1774421211.1831186,50
1774421211.1953738,48
1774421211.2208,47
1774421211.2363412,46
1774421211.2455902,45
1774421211.261867,45
1774421211.2834578,44
1774421211.2988834,43
1774421211.3219905,42
1774421211.3329027,40
1774421211.347411,39
1774421211.363652,37
1774421211.379449,36
1774421211.3978257,34
1774421211.4113748,32
1774421211.431603,30
1774421211.450706,29
1774421211.461296,28
1774421211.477203,26
1774421211.4938264,25
1774421211.5108027,24
1774421211.53846,23
1774421211.5481198,23
1774421211.5714257,22
1774421211.5834055,21
1774421211.593987,20
1774421211.6184494,20
1774421211.6298928,19
1774421211.6503944,18
1774421211.660846,20
1774421211.6863332,25
1774421211.698406,32
1774421211.711912,40
1774421211.7304344,48
1774421211.7464685,56
1774421211.7653518,62
1774421211.7785003,65
1774421211.8043358,65
1774421211.8111637,64
1774421211.8328817,62
1774421211.8469183,61
1774421211.866208,59
1774421211.8771212,58
1774421211.900596,56
1774421211.9122915,54
1774421211.9284012,52
1774421211.946021,50
1774421211.963568,48
1774421211.9818208,47
1774421211.9946377,46
1774421212.0122046,45
1774421212.0300956,44
1774421212.0521939,43
1774421212.0647836,41
1774421212.0780802,40
1774421212.1007683,39
1774421212.1106102,37
1774421212.1326408,36
1774421212.1469133,34
1774421212.1730323,32
1774421212.1807868,31
1774421212.204967,29
1774421212.213165,28
1774421212.227951,27
1774421212.2441442,26
1774421212.2611256,24
1774421212.2774882,23
1774421212.301416,22
1774421212.3166783,21
1774421212.3296669,21
1774421212.3515744,20
1774421212.3646178,19
1774421212.3806036,18
1774421212.3960354,17
1774421212.4121983,17
1774421212.4290829,19
1774421212.4447324,23
1774421212.4612658,31
1774421212.4814014,40
1774421212.4996705,48
1774421212.521546,57
1774421212.5295873,64
1774421212.5561447,68
1774421212.56095,69
1774421212.5822103,68
1774421212.6044395,67
1774421212.6132045,66
1774421212.6344411,65
1774421212.6475403,63
1774421212.6604486,62
1774421212.67814,60
1774421212.697654,58
1774421212.7149963,56
1774421212.7290034,54
1774421212.7541842,53
1774421212.7626662,51
1774421212.7783134,50
1774421212.8028376,49
1774421212.8104882,48
1774421212.828626,47
1774421212.8437994,45
1774421212.8671372,43
1774421212.8888946,42
1774421212.903792,40
1774421212.915755,39
1774421212.9342418,37
1774421212.9523115,36
1774421212.9605246,34
1774421212.9800882,33
1774421212.9975383,32
1774421213.0116308,31
1774421213.0317707,30
1774421213.0443041,29
1774421213.0667455,28
1774421213.0771127,27
1774421213.0984266,26
1774421213.1123643,25
1774421213.132615,24
1774421213.1474736,23
1774421213.1756523,22
1774421213.178318,21
1774421213.2052977,20
1774421213.2210832,19
1774421213.2362823,18
1774421213.2441,19
1774421213.261894,22
1774421213.277407,29
1774421213.3000977,37
1774421213.319757,45
1774421213.3357604,54
1774421213.3498685,61
1774421213.366707,66
1774421213.379659,67
1774421213.3980224,67
1774421213.4110334,66
1774421213.427615,65
1774421213.443969,63
1774421213.4629319,62
1774421213.486297,61
1774421213.4939377,59
1774421213.5140765,58
1774421213.5271099,56
1774421213.5560715,54
1774421213.5640516,53
1774421213.5850224,52
1774421213.5984664,51
1774421213.617926,50
1774421213.6348512,49
1774421213.6528325,49
1774421213.664787,47
1774421213.684154,46
1774421213.6999426,44
1774421213.7159386,43
1774421213.727329,41
1774421213.7479722,40
1774421213.7638597,38
1774421213.77999,37
1774421213.7953348,35
1774421213.811348,34
1774421213.8271675,32
1774421213.8438394,31
1774421213.8619268,30
1774421213.876964,29
1774421213.897172,28
1774421213.9253268,27
1774421213.9388785,26
1774421213.955176,26
1774421213.9633112,25
1774421213.9870534,24
1774421213.996261,23
1774421214.018088,22
1774421214.0350251,21
1774421214.0520358,20
1774421214.0625467,20
1774421214.0776598,23
1774421214.0985537,30
1774421214.1149411,38
1774421214.1305268,45
1774421214.145318,53
1774421214.1750903,61
1774421214.1786537,65
1774421214.194745,66
1774421214.210691,65
1774421214.2269707,64
1774421214.2443817,62
1774421214.2606533,61
1774421214.2781801,60
1774421214.3065143,58
1774421214.310276,57
1774421214.3321264,55
1774421214.3544765,53
1774421214.3682861,52
1774421214.3866005,51
1774421214.4027147,50
1774421214.4107826,49
1774421214.4318905,48
1774421214.4525344,47
1774421214.4655826,46
1774421214.4816203,45
1774421214.4947338,43
1774421214.513636,41
1774421214.527092,40
1774421214.5459042,38
1774421214.5615633,36
1774421214.5803342,34
1774421214.593705,32
1774421214.6125774,31
1774421214.6297858,30
1774421214.6443164,29
1774421214.6653209,28
1774421214.6815355,27
1774421214.694474,26
1774421214.7252495,25
1774421214.7347627,24
1774421214.7459455,23
1774421214.7613091,22
1774421214.7813647,21
1774421214.794211,20
1774421214.8126235,20
1774421214.832719,19
1774421214.8486657,21
1774421214.8631413,26
1774421214.8794422,33
1774421214.8980424,40
1774421214.913561,49
1774421214.9326541,56
1774421214.9484897,61
1774421214.9609768,63
1774421214.9796405,63
1774421214.9976826,62
1774421215.0118322,60
1774421215.04069,59
1774421215.0477543,58
1774421215.0726714,56
1774421215.0769103,54
1774421215.093768,53
1774421215.110251,51
1774421215.1362536,50
1774421215.158468,48
1774421215.1694925,47
1774421215.1832855,47
1774421215.1957664,46
1774421215.2109697,45
1774421215.2297862,44
1774421215.2459195,42
1774421215.2621434,41
1774421215.2779517,40
1774421215.2952924,38
1774421215.3220809,37
1774421215.333874,35
1774421215.345542,33
1774421215.3752918,32
1774421215.3830104,31
1774421215.3936865,30
1774421215.4118323,28
1774421215.4320054,28
1774421215.4448104,27
1774421215.4687219,26
1774421215.4768906,25
1774421215.5010226,25
1774421215.517913,24
1774421215.5269997,24
1774421215.548876,23
1774421215.5634181,22
1774421215.5819595,21
1774421215.5939486,21
1774421215.6140609,21
1774421215.630076,24
1774421215.646235,30
1774421215.6617641,38
1774421215.6774886,45
1774421215.6937284,53
1774421215.7209857,60
1774421215.7358577,65
1774421215.747948,66
1774421215.7644892,66
1774421215.7772942,65
1774421215.801713,64
1774421215.8123088,62
1774421215.8305664,61
1774421215.8448956,60
1774421215.8603177,58
1774421215.878852,57
1774421215.9015255,55
1774421215.910603,54
1774421215.93104,52
1774421215.9493814,51
1774421215.965424,51
1774421215.9791894,50
1774421215.9935553,49
1774421216.0141752,48
1774421216.0295851,46
1774421216.0585215,44
1774421216.0602381,42
1774421216.0774398,40
1774421216.103393,39
1774421216.1162648,38
1774421216.1307628,36
1774421216.1498528,34
1774421216.1616023,33
1774421216.180122,32
1774421216.2011676,30
1774421216.214473,29
1774421216.228021,28
1774421216.2437313,27
1774421216.261143,26
1774421216.2834094,26
1774421216.3001053,25
1774421216.3202872,24
1774421216.3316393,23
1774421216.3437443,23
1774421216.3633437,22
1774421216.3779974,21
1774421216.3951683,20
1774421216.4128578,19
1774421216.4279451,21
1774421216.4482477,25
1774421216.462079,32
1774421216.4822628,40
1774421216.4951668,48
1774421216.5114815,56
1774421216.5360105,63
1774421216.5499,66
1774421216.5661578,67
1774421216.5801768,67
1774421216.60305,66
1774421216.6124277,65
1774421216.6317484,64
1774421216.6443536,63
1774421216.66382,61
1774421216.6768897,60
1774421216.7000265,58
1774421216.7112412,56
1774421216.7328694,54
1774421216.744566,53
1774421216.7614176,52
1774421216.7810516,51
1774421216.799555,50
1774421216.8199744,49
1774421216.8283815,48
1774421216.849621,46
1774421216.8657217,44
1774421216.8831522,42
1774421216.894573,40
1774421216.913168,39
1774421216.9323328,38
1774421216.9497464,36
1774421216.965531,35
1774421216.9781144,33
1774421216.9955904,32
1774421217.0103354,31
1774421217.0304666,30
1774421217.0453444,29
1774421217.0624585,29
1774421217.0779574,28
1774421217.0979044,27
1774421217.1126947,26
1774421217.129916,25
1774421217.1539803,24
1774421217.1625588,23
1774421217.179264,22
1774421217.1937585,21
1774421217.2184443,21
1774421217.2277346,22
1774421217.2443132,26
1774421217.2636008,32
1774421217.2835681,40
1774421217.296228,47
1774421217.3155308,55
1774421217.3301747,62
1774421217.3479204,65
1774421217.3651147,66
1774421217.3800316,66
1774421217.3958058,65
1774421217.4114292,64
1774421217.434183,63
1774421217.446842,62
1774421217.4660256,61
1774421217.4769173,59
1774421217.493498,57
1774421217.5136704,55
1774421217.5321856,54
1774421217.5543118,52
1774421217.5611143,51
1774421217.578073,50
1774421217.6023583,49
1774421217.613373,48
1774421217.6311314,47
1774421217.645984,46
1774421217.6609206,44
1774421217.6795347,42
1774421217.696567,40
1774421217.7124326,39
1774421217.7314644,37
1774421217.7449358,35
1774421217.7625537,34
1774421217.7788389,33
1774421217.7944822,31
1774421217.811871,30
1774421217.8320277,29
1774421217.847904,28
1774421217.8602614,27
1774421217.878444,26
1774421217.893437,25
1774421217.9149845,25
1774421217.9306529,24
1774421217.943875,23
1774421217.963609,22
1774421217.9780777,21
1774421217.9976459,22
1774421218.01336,26
1774421218.031807,31
1774421218.0457833,39
1774421218.0603573,45
1774421218.0841165,52
1774421218.100714,58
1774421218.1157875,61
1774421218.129234,62
1774421218.1475809,61
1774421218.1617568,60
1774421218.178406,59
1774421218.1972892,58
1774421218.2116277,57
1774421218.2277782,55
1774421218.243688,54
1774421218.2600658,52
1774421218.282047,51
1774421218.3085332,49
1774421218.3190653,48
1774421218.3268566,48
1774421218.3449392,47
1774421218.3606958,46
1774421218.378692,45
1774421218.3934305,44
1774421218.4129093,43
1774421218.4374602,41
1774421218.456851,40
1774421218.4685514,39
1774421218.4793432,37
1774421218.5015159,35
1774421218.5156417,33
1774421218.5326767,32
1774421218.5480447,30
1774421218.5713532,29
1774421218.5836608,28
1774421218.6002975,27
1774421218.6111166,26
1774421218.6313996,25
1774421218.647199,24
1774421218.660073,24
1774421218.6789005,23
1774421218.6953125,22
1774421218.7109709,22
1774421218.7267532,21
1774421218.7463562,20
1774421218.7600667,19
1774421218.77967,20
1774421218.8043237,24
1774421218.8125145,30
1774421218.8328984,37
1774421218.8485262,45
1774421218.8664498,53
1774421218.8840508,59
1774421218.8946428,63
1774421218.9114752,64
1774421218.9274092,64
1774421218.9490616,63
1774421218.9644272,62
1774421218.9784546,61
1774421218.996791,60
1774421219.0114496,58
1774421219.0294652,57
1774421219.0460346,55
1774421219.060063,53
1774421219.0779133,51
1774421219.0934231,50
1774421219.1117709,48
1774421219.1329103,47
1774421219.1480443,47
1774421219.1603549,46
1774421219.1865833,44
1774421219.193721,43
1774421219.2143328,41
1774421219.2324994,40
1774421219.2438164,38
1774421219.2607985,36
1774421219.2787492,35
1774421219.3002262,33
1774421219.3153286,31
1774421219.3321607,30
1774421219.3442233,28
1774421219.3621516,27
1774421219.3798707,26
1774421219.3942435,25
1774421219.4106271,25
1774421219.4272785,24
1774421219.4443762,23
1774421219.4601092,23
1774421219.4814348,22
1774421219.4933195,22
1774421219.5106413,21
1774421219.5344484,21
1774421219.551465,20
1774421219.564015,19
1774421219.5805936,19
1774421219.5953722,20
1774421219.6132987,25
1774421219.6273844,32
1774421219.6492198,40
1774421219.6651857,48
1774421219.681281,56
1774421219.6972163,61
1774421219.7133164,64
1774421219.7292926,65
1774421219.7452805,64
1774421219.7632318,63
1774421219.77721,62
1774421219.7934656,62
1774421219.8174825,61
1774421219.8277566,59
1774421219.853205,58
1774421219.8609164,56
1774421219.8780022,55
1774421219.8933494,53
1774421219.9132657,52
1774421219.934824,50
1774421219.9458897,49
1774421219.9643512,48
1774421219.9838512,47
1774421219.9976676,46
1774421220.015685,44
1774421220.0315711,42
1774421220.0471325,41
1774421220.0630305,40
1774421220.0805311,38
1774421220.094954,36
1774421220.1240401,34
1774421220.129155,32
1774421220.1471925,31
1774421220.165476,29
1774421220.1768048,28
1774421220.1972506,27
1774421220.2130287,26
1774421220.2311795,25
1774421220.2444065,25
1774421220.260008,24
1774421220.2771897,23
1774421220.2933857,22
1774421220.3152738,21
1774421220.3301098,20
1774421220.3505168,19
1774421220.362066,18
1774421220.3828566,18
1774421220.3968518,20
1774421220.4129684,25
1774421220.4269643,32
1774421220.4450872,40
1774421220.4609838,48
1774421220.4808054,55
1774421220.5007777,61
1774421220.5162132,63
1774421220.5290117,63
1774421220.5478177,62
1774421220.5646622,60
1774421220.5824316,59
1774421220.5956361,58
1774421220.6112385,56
1774421220.62988,55
1774421220.650949,53
1774421220.6622837,51
1774421220.6770084,50
1774421220.6933594,48
1774421220.7148588,47
1774421220.729951,46
1774421220.7449532,45
1774421220.761017,44
1774421220.776979,43
1774421220.8016522,42
1774421220.8221278,40
1774421220.830408,39
1774421220.8433962,38
1774421220.8668869,36
1774421220.8835814,34
1774421220.899434,32
1774421220.914199,31
1774421220.933284,30
1774421220.9490225,29
1774421220.9654658,28
1774421220.9843905,27
1774421220.9950144,26
1774421221.0123322,25
1774421221.0284483,24
1774421221.0540946,24
1774421221.0604274,23
1774421221.0768209,22
1774421221.093319,21
1774421221.1181433,20
1774421221.127058,19
1774421221.148589,19
1774421221.1674173,21
1774421221.1816676,26
1774421221.1958156,33
1774421221.213395,40
1774421221.2268286,47
1774421221.2441878,54
1774421221.2610002,59
1774421221.2850375,61
1774421221.2963517,60
1774421221.3153448,59
1774421221.33169,57
1774421221.347464,56
1774421221.3634999,54
1774421221.376745,52
1774421221.3954153,51
1774421221.4114745,49
1774421221.427534,47
1774421221.4435081,46
1774421221.4620836,45
1774421221.4853327,44
1774421221.4990098,43
1774421221.5228922,43
1774421221.5386186,42
1774421221.5545778,41
1774421221.56561,40
1774421221.5845795,39
1774421221.5989995,37
1774421221.6124797,35
1774421221.6325974,34
1774421221.6448133,32
1774421221.6656091,30
1774421221.677183,29
1774421221.693744,28
1774421221.7103696,27
1774421221.7272174,26
1774421221.7438064,25
1774421221.7606447,24
1774421221.776586,23
1774421221.7964163,22
1774421221.8106558,22
1774421221.8283353,21
1774421221.8496625,20
1774421221.8602526,19
1774421221.8865228,19
1774421221.8932695,19
1774421221.9116604,20
1774421221.927139,25
1774421221.9531226,31
1774421221.9661667,39
1774421221.9831169,46
1774421221.998234,54
1774421222.0186388,60
1774421222.0301323,63
1774421222.055321,63
1774421222.061165,62
1774421222.0772848,61
1774421222.0988283,60
1774421222.114122,58
1774421222.1270702,57
1774421222.1561687,56
1774421222.1696515,54
1774421222.1843693,53
1774421222.1980877,51
1774421222.2166362,50
1774421222.233197,49
1774421222.2433915,48
1774421222.2601714,47
1774421222.2884166,46
1774421222.2934217,45
1774421222.310624,44
1774421222.3320024,42
1774421222.3462825,40
1774421222.3622632,40
1774421222.3818972,38
1774421222.3971395,36
1774421222.4113202,34
1774421222.429284,33
1774421222.4451249,31
1774421222.461228,30
1774421222.4777088,29
1774421222.4979663,28
1774421222.5098414,27
1774421222.5292788,27
1774421222.550628,26
1774421222.5643058,25
1774421222.5870383,24
1774421222.5972738,23
1774421222.6211274,22
1774421222.6283453,22
1774421222.6520214,21
1774421222.662758,20
1774421222.680557,20
1774421222.7011836,23
1774421222.712074,28
1774421222.7291474,35
1774421222.7482314,43
1774421222.7638745,51
1774421222.778603,59
1774421222.8057854,64
1774421222.812235,66
1774421222.8281825,66
1774421222.8434424,65
1774421222.8603225,64
1774421222.8852103,63
1774421222.8987155,62
1774421222.9098883,61
1774421222.9271927,60
1774421222.9435017,58
1774421222.9636984,56
1774421222.9813397,54
1774421222.9974911,53
1774421223.0113962,51
1774421223.0274432,50
1774421223.0436118,49
1774421223.0598614,48
1774421223.0830448,47
1774421223.0958605,45
1774421223.1140954,44
1774421223.1271138,42
1774421223.1530259,40
1774421223.162089,39
1774421223.1893322,37
1774421223.1941156,35
1774421223.2099316,34
1774421223.2387216,32
1774421223.244264,31
1774421223.2632828,30
1774421223.278785,29
1774421223.2998836,28
1774421223.3221214,27
1774421223.3321502,26
1774421223.3433397,26
1774421223.364046,25
1774421223.3864822,24
1774421223.3943205,23
1774421223.4100754,22
1774421223.4276466,21
1774421223.4433742,20
1774421223.4605484,19
1774421223.483397,19
1774421223.497062,18
1774421223.5110388,20
1774421223.5273087,25
1774421223.5436099,33
1774421223.5622163,40
1774421223.5818186,49
1774421223.5941935,57
1774421223.6101422,63
1774421223.6314518,66
1774421223.6467807,67
1774421223.6693776,66
1774421223.6883166,65
1774421223.6949923,64
1774421223.7171912,63
1774421223.7268531,62
1774421223.7507045,61
1774421223.7661994,59
1774421223.7804756,57
1774421223.7954216,55
1774421223.809904,53
1774421223.828095,52
1774421223.843344,51
1774421223.8632162,49
1774421223.87665,48
1774421223.9008107,47
1774421223.921865,46
1774421223.926566,44
1774421223.9555426,42
1774421223.9608476,41
1774421223.9774342,40
1774421223.993412,38
1774421224.0099263,36
1774421224.0353987,35
1774421224.0618763,34
1774421224.0681713,32
1774421224.0768566,31
1774421224.0946772,30
1774421224.11763,29
1774421224.1316965,28
1774421224.152461,28
1774421224.1641214,27
1774421224.184471,26
1774421224.1958163,26
1774421224.209913,25
1774421224.2300355,24
1774421224.2434793,23
1774421224.261378,22
1774421224.2764778,21
1774421224.2945755,22
1774421224.309779,25
1774421224.328261,31
1774421224.3445256,39
1774421224.3603187,46
1774421224.380497,54
1774421224.394853,60
1774421224.4131856,64
1774421224.4270425,65
1774421224.4435964,64
1774421224.4640346,62
1774421224.4884453,61
1774421224.4998794,60
1774421224.5158966,58
1774421224.5345237,57
1774421224.5492826,55
1774421224.56409,53
1774421224.5833077,51
1774421224.5938048,50
1774421224.6154392,48
1774421224.629429,47
1774421224.6442418,47
1774421224.6635194,46
1774421224.6764128,45
1774421224.693682,43
1774421224.710382,42
1774421224.727125,40
1774421224.7451735,39
1774421224.7633615,37
1774421224.7773638,35
1774421224.797891,33
1774421224.8099225,31
1774421224.8337486,30
1774421224.8443286,29
1774421224.8654525,27
1774421224.8811295,26
1774421224.9010382,25
1774421224.9099135,24
1774421224.9325137,23
1774421224.9437983,22
1774421224.9641795,22
1774421224.9812,21
1774421224.9955509,20
1774421225.0135064,19
1774421225.0278995,18
1774421225.0456955,18
1774421225.061375,19
1774421225.0763822,22
1774421225.0935032,29
1774421225.1111417,36
1774421225.131943,43
1774421225.1436615,51
1774421225.1701865,58
1774421225.1846812,61
1774421225.2034736,62
1774421225.209986,61
1774421225.2296932,60
1774421225.2445188,59
1774421225.2628098,58
1774421225.2779968,57
1774421225.2947648,56
1774421225.311418,54
1774421225.3281171,52
1774421225.3437655,50
1774421225.362957,49
1774421225.3783529,48
1774421225.3974988,47
1774421225.4106054,46
1774421225.4266505,45
1774421225.443077,44
1774421225.4599376,43
1774421225.4763458,41
1774421225.4966905,40
1774421225.514396,39
1774421225.5269952,37
1774421225.55294,35
1774421225.5710294,33
1774421225.5765436,32
1774421225.6031384,30
1774421225.6147463,28
1774421225.6351686,27
1774421225.6431842,26
1774421225.6708262,25
1774421225.684027,24
1774421225.69806,23
1774421225.7140665,22
1774421225.7349634,21
1774421225.7459397,21
1774421225.7621317,20
1774421225.7780313,19
1774421225.8002133,18
1774421225.8105812,17
1774421225.8263645,16
1774421225.847216,16
1774421225.8599732,18
1774421225.8772805,23
1774421225.8931184,30
1774421225.9122329,39
1774421225.9270563,47
1774421225.9459238,55
1774421225.9624796,62
1774421225.9798107,65
1774421226.0005698,66
1774421226.0099921,65
1774421226.0330727,64
1774421226.0500755,64
1774421226.063118,63
1774421226.082126,62
1774421226.098076,60
1774421226.114097,58
1774421226.1300397,56
1774421226.1460638,54
1774421226.1621435,52
1774421226.1781623,51
1774421226.2038162,49
1774421226.2107258,48
1774421226.2280703,47
1774421226.2434335,46
1774421226.261395,45
1774421226.276301,43
1774421226.2985058,42
1774421226.3157566,40
1774421226.326416,39
1774421226.3435988,37
1774421226.3682184,35
1774421226.3867993,33
1774421226.4001288,32
1774421226.4160564,30
1774421226.428161,29
1774421226.444094,28
1774421226.4624593,27
1774421226.4773147,26
1774421226.496096,25
1774421226.5116916,24
1774421226.5277061,24
1774421226.543749,23
1774421226.5600178,22
1774421226.579549,21
1774421226.5944588,20
1774421226.6120036,19
1774421226.630483,18
1774421226.6438053,17
1774421226.6689773,16
1774421226.6762683,16
1774421226.6948874,15
1774421226.7163925,17
1774421226.7276282,23
1774421226.7439604,30
1774421226.7658942,39
1774421226.777101,48
1774421226.7976034,56
1774421226.8136537,63
1774421226.8297136,65
1774421226.8456237,66
1774421226.8617196,65
1774421226.8769941,63
1774421226.8935442,62
1774421226.9096615,61
1774421226.931263,60
1774421226.9459698,58
1774421226.9626682,56
1774421226.9821525,55
1774421226.995455,53
1774421227.0112514,51
1774421227.0311685,49
1774421227.0442615,48
1774421227.0607986,47
1774421227.0763319,46
1774421227.096843,45
1774421227.1150765,43
1774421227.1264908,42
1774421227.1469126,40
1774421227.1629376,39
1774421227.1765766,37
1774421227.1946163,35
1774421227.209916,33
1774421227.228173,32
1774421227.243302,30
1774421227.259782,28
1774421227.2796338,27
1774421227.3003361,26
1774421227.3237062,25
1774421227.334298,23
1774421227.3450067,22
1774421227.3673062,21
1774421227.3796382,21
1774421227.3930368,20
1774421227.4127069,19
1774421227.4345274,18
1774421227.4439137,18
1774421227.466553,17
1774421227.4762506,16
1774421227.4985418,15
1774421227.514553,15
1774421227.5318165,17
1774421227.5467184,22
1774421227.5662596,29
1774421227.5769713,38
1774421227.5947335,45
1774421227.6096797,53
1774421227.626546,58
1774421227.6525016,59
1774421227.660359,59
1774421227.6796303,58
1774421227.6984658,56
1774421227.718161,54
1774421227.7385235,53
1774421227.748156,51
1774421227.7634676,49
1774421227.7811346,48
1774421227.7945514,46
1774421227.8112993,45
1774421227.82798,44
1774421227.843453,43
1774421227.8625076,42
1774421227.876961,41
1774421227.8970752,40
1774421227.9120636,40
1774421227.9279242,39
1774421227.9466107,38
1774421227.9598534,36
1774421227.9762526,34
1774421227.9946504,32
1774421228.010771,30
1774421228.0265343,29
1774421228.0550005,27
1774421228.0686293,26
1774421228.0834785,25
1774421228.0929537,24
1774421228.1189532,23
1774421228.1325111,22
1774421228.1541593,21
1774421228.1692271,20
1774421228.1801093,20
1774421228.2016697,19
1774421228.211517,18
1774421228.233504,18
1774421228.2433379,17
1774421228.260048,16
1774421228.2780316,15
1774421228.2967997,15
1774421228.3123987,14
1774421228.3310256,16
1774421228.342916,21
1774421228.360409,28
1774421228.380194,37
1774421228.4070935,45
1774421228.4217412,54
1774421228.42648,60
1774421228.4459395,63
1774421228.4705029,63
1774421228.4842021,62
1774421228.4989917,60
1774421228.5151427,58
1774421228.5272696,57
1774421228.5484653,56
1774421228.5608678,54
1774421228.5830784,53
1774421228.5932813,51
1774421228.6128726,49
1774421228.6265142,48
1774421228.6439655,46
1774421228.6628404,45
1774421228.676714,45
1774421228.694876,44
1774421228.7109358,43
1774421228.7264977,41
1774421228.7428982,40
1774421228.761301,39
1774421228.7874517,37
1774421228.799982,36
1774421228.81114,34
1774421228.83126,32
1774421228.843091,31
1774421228.8670115,30
1774421228.881055,28
1774421228.8933723,27
1774421228.912906,26
1774421228.926688,25
1774421228.9494069,24
1774421228.965013,23
1774421228.9795253,22
1774421228.9974096,22
1774421229.013504,21
1774421229.0303938,21
1774421229.0450006,20
1774421229.0599926,20
1774421229.078449,19
1774421229.0942564,18
1774421229.1095326,18
1774421229.1262841,18
1774421229.148594,21
1774421229.171772,27
1774421229.182901,35
1774421229.2059505,43
1774421229.2126591,52
1774421229.2343867,60
1774421229.2434554,65
1774421229.2601583,67
1774421229.2782092,67
1774421229.304779,65
1774421229.316097,64
1774421229.3310623,62
1774421229.3441503,61
1774421229.3599,60
1774421229.3787146,58
1774421229.3931768,57
1774421229.4168532,55
1774421229.4288888,53
1774421229.4432151,52
1774421229.460015,50
1774421229.477071,49
1774421229.4975653,48
1774421229.514007,47
1774421229.5272603,46
1774421229.5442305,45
1774421229.5651915,43
1774421229.5807402,41
1774421229.5937276,40
1774421229.6172023,39
1774421229.6290011,37
1774421229.6491663,35
1774421229.6631708,34
1774421229.677173,33
1774421229.693716,32
1774421229.7105815,31
1774421229.7263203,30
1774421229.7453208,29
1774421229.7612123,28
1774421229.7778919,27
1774421229.7940142,27
1774421229.8169024,26
1774421229.8269424,25
1774421229.8464046,24
1774421229.8615074,23
1774421229.8779514,22
1774421229.8933873,21
1774421229.911782,20
1774421229.9364853,20
1774421229.9524918,20
1774421229.9612734,24
1774421229.9844556,30
1774421230.0001504,39
1774421230.0147855,46
1774421230.028282,55
1774421230.0448332,62
1774421230.0612097,66
1774421230.0781028,66
1774421230.0935824,65
1774421230.11052,64
1774421230.1266994,62
1774421230.1434162,61
1774421230.161018,59
1774421230.1802173,58
1774421230.1950507,57
1774421230.21562,55
1774421230.2309096,53
1774421230.2436287,52
1774421230.260202,51
1774421230.2760835,50
1774421230.2979672,49
1774421230.309398,48
1774421230.3282464,48
1774421230.3495758,47
1774421230.365506,45
1774421230.3788998,44
1774421230.4119675,42
1774421230.412443,40
1774421230.4295793,39
1774421230.4455476,38
1774421230.459766,36
1774421230.4824448,34
1774421230.497234,33
1774421230.5110452,32
1774421230.5325031,31
1774421230.5476274,30
1774421230.559931,29
1774421230.5826728,28
1774421230.5932298,27
1774421230.6186762,26
1774421230.6269183,25
1774421230.6435177,24
1774421230.6616385,23
1774421230.6760652,22
1774421230.696733,22
1774421230.709692,25
1774421230.7260492,30
1774421230.7486386,38
1774421230.7593968,45
1774421230.7812643,53
1774421230.7964966,60
1774421230.8100848,64
1774421230.8281076,65
1774421230.8441844,64
1774421230.8608954,62
1774421230.8789663,61
1774421230.892797,59
1774421230.915544,58
1774421230.937335,57
1774421230.9445527,55
1774421230.9601495,53
1774421230.9800906,52
1774421231.0041683,50
1774421231.0104365,49
1774421231.0352392,48
1774421231.0438628,47
1774421231.0609658,46
1774421231.0792122,45
1774421231.1004255,44
1774421231.112119,42
1774421231.132687,40
1774421231.1435907,39
1774421231.1682312,37
1774421231.1890724,35
1774421231.1961477,34
1774421231.210942,32
1774421231.2267296,30
1774421231.244454,29
1774421231.2598765,28
1774421231.2773376,27
1774421231.2930083,26
1774421231.3218062,25
1774421231.3267522,24
1774421231.3520308,24
1774421231.3601258,23
1774421231.3809857,22
1774421231.3937433,21
1774421231.4129233,21
1774421231.4346445,20
1774421231.44511,20
1774421231.4662669,21
1774421231.4775841,25
1774421231.5000272,32
1774421231.5162594,40
1774421231.5263975,49
1774421231.543821,57
1774421231.559372,63
1774421231.5792632,67
1774421231.5959764,67
1774421231.6146634,66
1774421231.6267233,65
1774421231.653633,64
1774421231.6680121,63
1774421231.6761293,62
1774421231.7027018,60
1774421231.718527,59
1774421231.727936,57
1774421231.7539115,55
1774421231.770064,53
1774421231.783654,52
1774421231.8019433,51
1774421231.8116732,50
1774421231.8264792,49
1774421231.849879,48
1774421231.8603263,47
1774421231.8802848,45
1774421231.89267,44
1774421231.90939,42
1774421231.9267995,40
1774421231.945854,39
1774421231.9593194,38
1774421231.9771724,36
1774421231.993322,35
1774421232.0100179,34
1774421232.0287871,32
1774421232.051292,31
1774421232.0593367,30
1774421232.0835252,29
1774421232.0932555,28
1774421232.115504,28
1774421232.1268804,27
1774421232.1478908,26
1774421232.1671414,25
1774421232.179002,24
1774421232.19999,24
1774421232.2129834,23
1774421232.2266483,23
1774421232.2431517,25
1774421232.259495,30
1774421232.280996,37
1774421232.2926733,45
1774421232.3128946,53
1774421232.3259864,60
1774421232.343912,65
1774421232.37592,68
1774421232.3770921,68
1774421232.3932893,67
1774421232.4110217,66
1774421232.4267259,65
1774421232.4522145,64
1774421232.460406,63
1774421232.481256,61
1774421232.49272,60
1774421232.5170634,58
1774421232.5271168,56
1774421232.545542,54
1774421232.5599704,53
1774421232.5797951,52
1774421232.5982678,51
1774421232.615823,50
1774421232.6286323,49
1774421232.6432955,47
1774421232.6596773,46
1774421232.6765308,44
1774421232.692697,42
1774421232.7102277,40
1774421232.727214,39
1774421232.7430208,38
1774421232.7619474,36
1774421232.7767465,35
1774421232.7954087,33
1774421232.8128948,32
1774421232.8326144,31
1774421232.8471966,30
1774421232.8599505,29
1774421232.876346,28
1774421232.9005468,28
1774421232.9159431,27
1774421232.933242,26
1774421232.9492052,26
1774421232.959914,25
1774421232.9767466,24
1774421232.993216,23
1774421233.0111783,22
1774421233.0272982,22
1774421233.045095,23
1774421233.061176,27
1774421233.076884,33
1774421233.0932364,40
1774421233.1094596,48
1774421233.1349945,56
1774421233.1486497,61
1774421233.1601582,64
1774421233.179716,65
1774421233.194127,65
1774421233.2143626,64
1774421233.2313943,63
1774421233.2429774,62
1774421233.2606165,61
1774421233.28173,59
1774421233.2937307,57
1774421233.30936,56
1774421233.332006,54
1774421233.3477387,52
1774421233.3600187,51
1774421233.382635,49
1774421233.3963778,49
1774421233.409659,48
1774421233.4268572,46
1774421233.443298,45
1774421233.4595032,44
1774421233.4855907,42
1774421233.4944563,40
1774421233.5186281,40
1774421233.5258968,38
1774421233.550043,36
1774421233.5592153,35
1774421233.5859013,34
1774421233.5925832,32
1774421233.6102953,31
1774421233.629686,30
1774421233.646756,30
1774421233.659967,29
1774421233.6809185,28
1774421233.6953132,28
1774421233.7135217,27
1774421233.7269714,26
1774421233.7448628,26
1774421233.7642117,25
1774421233.7769005,24
1774421233.7933207,25
1774421233.815907,29
1774421233.8278022,35
1774421233.8438225,40
1774421233.8624842,47
1774421233.8764353,54
1774421233.8930676,59
1774421233.910007,61
1774421233.9300885,61
1774421233.944403,60
1774421233.9598475,59
1774421233.980953,58
1774421233.9931045,56
1774421234.015355,55
1774421234.0294523,53
1774421234.0473967,51
1774421234.063333,49
1774421234.078654,47
1774421234.093142,46
1774421234.1114595,45
1774421234.1273477,44
1774421234.1483471,44
1774421234.1593547,43
1774421234.176918,42
1774421234.1943567,40
1774421234.2098691,40
1774421234.229715,38
1774421234.242951,36
1774421234.261093,34
1774421234.2765656,32
1774421234.2925174,31
1774421234.3116283,29
1774421234.3259006,28
1774421234.3447137,27
1774421234.3591917,26
1774421234.3816042,25
1774421234.3931203,24
1774421234.415582,23
1774421234.4278603,23
1774421234.4471333,22
1774421234.459849,22
1774421234.4801161,21
1774421234.4938145,20
1774421234.5116923,20
1774421234.525895,19
1774421234.5464888,20
1774421234.566573,23
1774421234.581089,29
1774421234.5989432,36
1774421234.6113014,43
1774421234.629998,51
1774421234.643327,57
1774421234.6653879,61
1774421234.6846564,61
1774421234.6980927,61
1774421234.7092345,59
1774421234.7258532,58
1774421234.743754,56
1774421234.7591853,55
1774421234.7785065,54
1774421234.7961693,52
1774421234.8175194,50
1774421234.8321033,49
1774421234.8446345,47
1774421234.860669,46
1774421234.8787622,45
1774421234.8962548,44
1774421234.909308,43
1774421234.9305136,42
1774421234.94657,41
1774421234.9619346,40
1774421234.9768803,39
1774421234.994125,37
1774421235.0098069,35
1774421235.0263953,34
1774421235.0431607,32
1774421235.0601583,30
1774421235.076486,29
1774421235.0925086,28
1774421235.111509,26
1774421235.1258025,25
1774421235.1474967,25
1774421235.1644366,24
1774421235.1848035,23
1774421235.1955328,23
1774421235.2142925,22
1774421235.2266586,21
1774421235.2428389,21
1774421235.2596824,20
1774421235.2797499,19
1774421235.2991908,19
1774421235.3103986,21
1774421235.3310194,26
1774421235.3454707,33
1774421235.366357,40
1774421235.376408,48
1774421235.395414,55
1774421235.414663,60
1774421235.4275358,63
1774421235.4466434,63
1774421235.459543,62
1774421235.4765558,61
1774421235.4925005,60
1774421235.511159,59
1774421235.527006,58
1774421235.5450428,56
1774421235.5594027,55
1774421235.5798354,53
1774421235.5974977,51
1774421235.6099718,49
1774421235.627231,48
1774421235.6471837,47
1774421235.660134,46
1774421235.6809626,45
1774421235.6957214,44
1774421235.7092981,43
1774421235.728053,41
1774421235.7447357,40
1774421235.7608316,39
1774421235.7816324,37
1774421235.7976534,35
1774421235.814867,34
1774421235.8276134,32
1774421235.8445911,31
1774421235.8608325,29
1774421235.875976,28
1774421235.8926446,27
1774421235.9092727,26
1774421235.9318588,26
1774421235.9521854,25
1774421235.9610558,24
1774421235.979199,23
1774421235.9974937,23
1774421236.0207157,22
1774421236.0354106,21
1774421236.0436323,20
1774421236.064606,20
1774421236.0845637,19
1774421236.0990849,18
1774421236.109759,19
1774421236.131819,22
1774421236.1432335,28
1774421236.1636722,35
1774421236.1805377,43
1774421236.1960697,51
1774421236.212544,58
1774421236.2288117,63
1774421236.2432723,65
1774421236.2594407,64
1774421236.2764328,63
1774421236.292635,62
1774421236.324005,61
1774421236.3377423,60
1774421236.3459754,58
1774421236.361311,57
1774421236.383316,55
1774421236.4039116,54
1774421236.419556,52
1774421236.4357016,51
1774421236.4458265,50
1774421236.4675107,49
1774421236.483524,48
1774421236.4950738,47
1774421236.5101266,46
1774421236.5316677,45
1774421236.5428834,43
1774421236.5602667,42
1774421236.5795138,40
1774421236.5954728,39
1774421236.6116278,37
1774421236.6277022,36
1774421236.643663,34
1774421236.6591487,33
1774421236.6835482,32
1774421236.6923923,31
1774421236.7093332,30
1774421236.726955,29
1774421236.7466612,28
1774421236.7641196,28
1774421236.7850318,27
1774421236.8023036,26
1774421236.818234,26
1774421236.8298655,25
1774421236.8499262,24
1774421236.8687615,23
1774421236.8822744,22
1774421236.8932216,21
1774421236.9145012,21
1774421236.935552,23
1774421236.9434872,28
1774421236.9643583,34
1774421236.976506,41
1774421236.9939747,49
1774421237.0098236,57
1774421237.0260098,62
1774421237.0432336,64
1774421237.0632012,64
1774421237.0790296,63
1774421237.1026855,62
1774421237.1217597,61
1774421237.1285021,60
1774421237.1431012,59
1774421237.1594021,57
1774421237.177931,56
1774421237.1987803,54
1774421237.2097647,53
1774421237.2309988,51
1774421237.2432508,50
1774421237.2593534,50
1774421237.276247,49
1774421237.2966826,48
1774421237.310646,47
1774421237.332092,46
1774421237.3455722,44
1774421237.3601367,43
1774421237.3767622,41
1774421237.393117,40
1774421237.4101958,38
1774421237.429662,37
1774421237.4505847,35
1774421237.4650002,33
1774421237.4761794,32
1774421237.492966,31
1774421237.5090919,30
1774421237.5265403,29
1774421237.5526085,28
1774421237.5671206,27
1774421237.5819538,27
1774421237.5996666,26
1774421237.609795,25
1774421237.627948,24
1774421237.6471772,23
1774421237.663262,24
1774421237.679193,26
1774421237.6958284,31
1774421237.7114332,37
1774421237.7315874,44
1774421237.7463531,51
1774421237.7603145,57
1774421237.7780037,61
1774421237.7956643,62
1774421237.8169918,62
1774421237.8279169,60
1774421237.8453834,59
1774421237.8602543,57
1774421237.8806405,56
1774421237.8929625,54
1774421237.9109457,52
1774421237.9340122,51
1774421237.9433177,49
1774421237.965864,48
1774421237.9789984,47
1774421237.997921,46
1774421238.0222595,45
1774421238.0299249,45
1774421238.043047,44
1774421238.0627022,43
1774421238.0777965,41
1774421238.0936704,40
1774421238.1098921,39
1774421238.1373377,37
1774421238.1423597,35
1774421238.1594691,33
1774421238.1767583,31
1774421238.1987832,30
1774421238.2136016,29
1774421238.2335436,28
1774421238.2430522,27
1774421238.2592273,26
1774421238.2762885,25
1774421238.2923722,24
1774421238.3116496,24
1774421238.3315492,23
1774421238.3426757,23
1774421238.360409,22
1774421238.3765333,21
1774421238.3947592,21
1774421238.4117076,21
1774421238.426898,23
1774421238.443704,27
1774421238.4651952,34
1774421238.4760084,41
1774421238.4953964,49
1774421238.5107465,57
1774421238.5292528,62
1774421238.5473144,65
1774421238.5634315,65
1774421238.5759618,64
1774421238.5950704,63
1774421238.6101198,62
1774421238.6293995,60
1774421238.6435907,59
1774421238.6596024,58
1774421238.6834753,56
1774421238.6932573,55
1774421238.709198,53
1774421238.7265453,51
1774421238.742278,50
1774421238.7626483,49
1774421238.7786145,48
1774421238.794566,47
1774421238.8137054,46
1774421238.8259885,45
1774421238.8518267,43
1774421238.860352,42
1774421238.8869677,40
1774421238.902845,39
1774421238.9109018,37
1774421238.9321628,35
1774421238.9432285,34
1774421238.9591444,32
1774421238.9765139,31
1774421238.9960816,30
1774421239.010613,29
1774421239.0277631,27
1774421239.0435817,26
1774421239.0597394,26
1774421239.0763533,25
1774421239.0935442,24
1774421239.1138291,24
1774421239.126425,23
1774421239.1433582,22
1774421239.1621382,21
1774421239.1778142,21
1774421239.1938293,21
1774421239.2151275,23
1774421239.2276018,28
1774421239.2436755,35
1774421239.2603283,41
1774421239.28871,50
1774421239.3030062,57
1774421239.3177445,63
1774421239.326876,65
1774421239.347294,65
1774421239.367727,64
1774421239.3824875,63
1774421239.396504,62
1774421239.415257,61
1774421239.4294345,60
1774421239.451864,59
1774421239.4627895,57
1774421239.4787033,55
1774421239.494842,53
1774421239.5088875,52
1774421239.527737,50
1774421239.5426624,49
1774421239.561822,48
1774421239.5778296,47
1774421239.5965466,46
1774421239.610162,45
1774421239.6330886,43
1774421239.650838,42
1774421239.6590955,40
1774421239.6785352,39
1774421239.699378,37
1774421239.7090693,35
1774421239.731833,34
1774421239.7483456,32
1774421239.760857,31
1774421239.7813923,30
1774421239.7954235,29
1774421239.8096917,28
1774421239.8282373,27
1774421239.8434918,26
1774421239.8601537,25
1774421239.8756185,25
1774421239.8974295,24
1774421239.908948,23
1774421239.9274676,23
1774421239.949805,22
1774421239.9593112,21
1774421239.9769568,20
1774421239.9984555,19
1774421240.0130925,18
1774421240.0330956,18
1774421240.0511537,21
1774421240.063286,26
1774421240.0831006,34
1774421240.0990293,41
1774421240.1097682,50
1774421240.1264656,58
1774421240.1461473,63
1774421240.163049,66
1774421240.176757,66
1774421240.1951027,65
1774421240.2110639,63
1774421240.2261107,62
1774421240.2427552,61
1774421240.2593613,59
1774421240.2803707,58
1774421240.3041887,56
1774421240.3088915,54
1774421240.3264701,53
1774421240.34889,51
1774421240.3627954,50
1774421240.3840225,49
1774421240.4014733,48
1774421240.415991,47
1774421240.4326198,46
1774421240.44886,44
1774421240.4637456,43
1774421240.484011,41
1774421240.5036585,40
1774421240.5098946,39
1774421240.5278933,37
1774421240.5446773,35
1774421240.5598598,33
1774421240.57577,32
1774421240.6041942,31
1774421240.612206,30
1774421240.6366918,29
1774421240.6440103,28
1774421240.659868,27
1774421240.6755247,27
1774421240.6931598,26
1774421240.708875,25
1774421240.729359,25
1774421240.7439194,24
1774421240.7631621,23
1774421240.779593,22
1774421240.7997723,23
1774421240.8096743,25
1774421240.831951,30
1774421240.8478823,37
1774421240.859059,44
1774421240.8828256,51
1774421240.8952801,58
1774421240.9098654,62
1774421240.9338214,63
1774421240.9429946,62
1774421240.960545,61
1774421240.9815054,59
1774421240.995708,57
1774421241.0092971,56
1774421241.0265973,54
1774421241.0442255,52
1774421241.059786,50
1774421241.0756965,49
1774421241.0996158,47
1774421241.109287,46
1774421241.1326454,46
1774421241.1458862,45
1774421241.1748362,44
1774421241.1755085,44
1774421241.1944728,43
1774421241.2101336,41
1774421241.2269893,40
1774421241.2429109,39
1774421241.2600036,37
1774421241.275968,35
1774421241.2951398,33
1774421241.3100717,32
1774421241.3257527,30
1774421241.3421996,29
1774421241.359887,28
1774421241.3796892,27
1774421241.3949704,26
1774421241.414941,25
1774421241.4277885,25
1774421241.4442704,24
1774421241.4598489,23
1774421241.4797843,23
1774421241.4931924,22
1774421241.5088418,21
1774421241.527727,22
1774421241.5460465,25
1774421241.5663998,30
1774421241.5764475,38
1774421241.6055636,45
1774421241.608937,53
1774421241.639102,59
1774421241.6502776,63
1774421241.6630607,65
1774421241.6758971,64
1774421241.7004309,63
1774421241.7191024,62
1774421241.735303,60
1774421241.7501907,59
1774421241.7650557,58
1774421241.7831054,56
1774421241.793138,54
1774421241.8133526,53
1774421241.8269105,51
1774421241.8440356,50
1774421241.8589046,49
1774421241.8755698,48
1774421241.8940408,47
1774421241.9104798,46
1774421241.9263442,45
1774421241.942138,43
1774421241.9613225,41
1774421241.9832954,40
1774421241.9932132,39
1774421242.0239837,37
1774421242.031635,35
1774421242.042389,34
1774421242.0629258,32
1774421242.076224,31
1774421242.0948613,30
1774421242.1136978,29
1774421242.126552,28
1774421242.1474261,27
1774421242.1636,26
1774421242.1795135,26
1774421242.1948636,25
1774421242.2114117,24
1774421242.2269154,23
1774421242.2422097,22
1774421242.2594082,22
1774421242.2754962,24
1774421242.3025827,29
1774421242.3088973,36
1774421242.3255074,42
1774421242.3421793,51
1774421242.3659935,58
1774421242.382887,64
1774421242.401471,66
1774421242.4115455,67
1774421242.4264455,67
1774421242.4431071,66
1774421242.4605727,65
1774421242.4819584,64
1774421242.4930549,64
1774421242.5094888,62
1774421242.5264325,61
1774421242.5504236,59
1774421242.5610855,57
1774421242.5780406,55
1774421242.5940955,54
1774421242.610202,53
1774421242.626332,51
1774421242.6461895,51
1774421242.664316,49
1774421242.6796422,48
1774421242.6958995,46
1774421242.7127867,45
1774421242.7283845,43
1774421242.743069,41
1774421242.7609522,40
1774421242.7830594,38
1774421242.802656,36
1774421242.8140953,35
1774421242.8320384,34
1774421242.8432066,33
1774421242.85979,32
1774421242.8852599,31
1774421242.893266,30
1774421242.9102573,29
1774421242.926237,28
1774421242.94887,28
1774421242.9707425,27
1774421242.9803092,26
1774421242.994307,26
1774421243.0121753,25
1774421243.026675,24
1774421243.04406,23
1774421243.059787,25
1774421243.0757551,29
1774421243.0933084,35
1774421243.11444,41
1774421243.1285162,49
1774421243.142167,57
1774421243.160063,63
1774421243.1772017,67
1774421243.193944,68
1774421243.2100713,68
1774421243.226122,67
1774421243.2422452,66
1774421243.259389,65
1774421243.2778857,64
1774421243.2998943,63
1774421243.3152206,61
1774421243.338006,59
1774421243.354023,57
1774421243.360607,55
1774421243.3815708,54
1774421243.400972,52
1774421243.4106832,51
1774421243.4265761,50
1774421243.4438958,49
1774421243.4615886,48
1774421243.4813075,46
1774421243.4942062,45
1774421243.509158,43
1774421243.526463,41
1774421243.5444672,39
1774421243.5678163,37
1774421243.5753727,36
1774421243.5932183,34
1774421243.609069,33
1774421243.6253753,31
1774421243.6470814,30
1774421243.667965,29
1774421243.6759832,29
1774421243.6933122,28
1774421243.7119472,27
1774421243.7268777,26
1774421243.7467635,26
1774421243.761311,25
1774421243.780019,24
1774421243.7926874,23
1774421243.812726,23
1774421243.8264875,26
1774421243.842091,31
1774421243.8587213,37
1774421243.8757775,44
1774421243.8959858,51
1774421243.9086905,58
1774421243.9264977,62
1774421243.9432075,63
1774421243.9627619,63
1774421243.9762988,62
1774421243.9921556,61
1774421244.0147033,60
1774421244.0335977,58
1774421244.0539448,57
1774421244.0599096,55
1774421244.083654,53
1774421244.093287,51
1774421244.1173928,49
1774421244.1264477,48
1774421244.1472263,47
1774421244.1618583,46
1774421244.1802866,45
1774421244.1940618,44
1774421244.208872,43
1774421244.2306519,42
1774421244.2454615,40
1774421244.259634,39
1774421244.2757173,37
1774421244.292792,35
1774421244.3107054,33
1774421244.325371,32
1774421244.3421307,30
1774421244.364883,29
1774421244.381604,28
1774421244.3927028,27
1774421244.4188259,26
1774421244.4300313,26
1774421244.4454193,25
1774421244.459807,24
1774421244.4794626,23
1774421244.4976587,22
1774421244.5140283,21
1774421244.5264657,22
1774421244.5473125,24
1774421244.5590713,29
1774421244.5803237,36
1774421244.5925229,42
1774421244.6111026,50
1774421244.625758,56
1774421244.643238,60
1774421244.6592588,61
1774421244.6755102,61
1774421244.6999662,60
1774421244.7130167,59
1774421244.7327197,58
1774421244.747654,56
1774421244.771311,55
1774421244.7782767,53
1774421244.7931104,51
1774421244.8087761,49
1774421244.8269148,48
1774421244.8512988,46
1774421244.8600268,46
1774421244.875412,45
1774421244.8951876,44
1774421244.9138362,43
1774421244.9261463,42
1774421244.9474478,41
1774421244.964238,40
1774421244.9792137,38
1774421244.995296,36
1774421245.0107229,34
1774421245.0266056,32
1774421245.0433636,31
1774421245.0597894,30
1774421245.07571,28
1774421245.105678,27
1774421245.1091216,26
1774421245.137758,26
1774421245.153807,25
1774421245.1590273,24
1774421245.178755,24
1774421245.1924882,23
1774421245.209683,22
1774421245.2310061,21
1774421245.2422886,21
1774421245.2596123,23
1774421245.2803524,28
1774421245.2964344,34
1774421245.312005,41
1774421245.326665,49
1774421245.3434682,56
1774421245.359776,61
1774421245.3765101,64
1774421245.3925052,65
1774421245.4093802,64
1774421245.4392946,64
1774421245.4435546,63
1774421245.46615,62
1774421245.4753513,60
1774421245.4932578,59
1774421245.5089707,57
1774421245.5258553,55
1774421245.5504782,53
1774421245.5629678,51
1774421245.580141,50
1774421245.593167,49
1774421245.6143527,48
1774421245.6303172,47
1774421245.6426752,45
1774421245.6599214,44
1774421245.6833935,42
1774421245.6944778,40
1774421245.7121925,39
1774421245.7263272,37
1774421245.7438736,35
1774421245.760567,33
1774421245.7753131,32
1774421245.8054788,30
1774421245.811598,29
1774421245.8325214,28
1774421245.850078,27
1774421245.863648,26
1774421245.8787458,25
1774421245.892526,24
1774421245.908624,24
1774421245.9312742,23
1774421245.952325,22
1774421245.9591966,21
1774421245.9805112,21
1774421245.9931753,20
1774421246.0130782,19
1774421246.0252318,19
1774421246.0431175,21
1774421246.0586298,26
1774421246.0760694,33
1774421246.0930738,40
1774421246.1150126,49
1774421246.1277018,57
1774421246.1439683,63
1774421246.1609683,66
1774421246.1820397,67
1774421246.1981525,66
1774421246.2117732,66
1774421246.227026,65
1774421246.2422173,64
1774421246.2590718,63
1774421246.276437,61
1774421246.291861,59
1774421246.3113906,57
1774421246.3252773,55
1774421246.3429341,53
1774421246.3603244,52
1774421246.3770163,50
1774421246.403112,49
1774421246.4105632,48
1774421246.4332442,47
1774421246.4441612,46
1774421246.4585674,44
1774421246.4765015,42
1774421246.4918675,40
1774421246.5169623,39
1774421246.525757,37
1774421246.5472019,35
1774421246.568245,33
1774421246.5753846,32
1774421246.5939991,30
1774421246.6117709,29
1774421246.6349769,28
1774421246.6471627,27
1774421246.65937,26
1774421246.6775472,25
1774421246.6918175,24
1774421246.70981,23
1774421246.7251606,22
1774421246.7431903,21
1774421246.7585244,21
1774421246.7764378,20
1774421246.7987654,19
1774421246.809344,18
1774421246.8261833,17
1774421246.8460474,17
1774421246.8599277,18
1774421246.883905,22
1774421246.8949978,29
1774421246.9125369,37
1774421246.9267778,45
1774421246.9432447,53
1774421246.960836,60
1774421246.9800553,63
1774421246.9920187,64
1774421247.0134654,63
1774421247.026471,62
1774421247.041982,61
1774421247.0604212,60
1774421247.0764592,58
1774421247.0920217,57
1774421247.1128805,55
1774421247.1251786,53
1774421247.1430688,51
1774421247.1609826,50
1774421247.1773672,48
1774421247.1938603,47
1774421247.2129269,46
1774421247.2269895,45
1774421247.2423341,44
1774421247.25903,43
1774421247.27568,41
1774421247.304132,40
1774421247.3085592,38
1774421247.325246,36
1774421247.347185,34
1774421247.3669207,32
1774421247.382374,31
1774421247.3932118,29
1774421247.4150474,28
1774421247.4276013,26
1774421247.44486,25
1774421247.4602144,24
1774421247.4791489,24
1774421247.4928827,23
1774421247.5109458,22
1774421247.526376,21
1774421247.5424573,21
1774421247.5591843,20
1774421247.5753167,19
1774421247.593049,18
1774421247.6085494,18
1774421247.6291711,20
1774421247.6551013,26
1774421247.6598704,33
1774421247.6813037,40
1774421247.698138,48
1774421247.718146,55
1774421247.7320433,59
1774421247.7418811,60
1774421247.7611701,60
1774421247.7817087,59
1774421247.7956629,57
1774421247.8094082,56
1774421247.828975,54
1774421247.8420887,53
1774421247.8590157,51
1774421247.8782585,49
1774421247.8918045,47
1774421247.9091454,46
1774421247.9255743,45
1774421247.943313,44
1774421247.9584582,44
1774421247.975944,43
1774421247.9990869,42
1774421248.0142326,41
1774421248.0265062,40
1774421248.0424674,38
1774421248.0597584,36
1774421248.0807714,34
1774421248.0945873,32
1774421248.1129334,31
1774421248.126444,29
1774421248.1435847,27
1774421248.1585405,26
1774421248.1807034,25
1774421248.195675,24
1774421248.2098536,23
1774421248.2254434,22
1774421248.2447665,22
1774421248.2589202,21
1774421248.2762063,20
1774421248.2917633,20
1774421248.3238535,19
1774421248.3258352,18
1774421248.3423657,18
1774421248.3591895,20
1774421248.37967,25
1774421248.3918903,33
1774421248.409952,40
1774421248.4264295,49
1774421248.4429417,57
1774421248.460958,62
1774421248.476635,64
1774421248.493255,64
1774421248.5108037,62
1774421248.5257838,61
1774421248.5469851,59
1774421248.561087,58
1774421248.5760791,56
1774421248.5930903,55
1774421248.6102114,53
1774421248.62702,51
1774421248.641839,50
1774421248.6599226,48
1774421248.6796103,47
1774421248.694494,46
1774421248.7096689,45
1774421248.7290983,44
1774421248.747971,43
1774421248.7599769,41
1774421248.7767544,40
1774421248.79521,39
1774421248.8110974,37
1774421248.8253822,35
1774421248.84411,33
1774421248.8598838,31
1774421248.8797405,29
1774421248.891873,28
1774421248.9085696,27
1774421248.9276054,26
1774421248.9431572,25
1774421248.9634678,24
1774421248.9754605,24
1774421248.995781,23
1774421249.0098047,22
1774421249.0278516,22
1774421249.0421672,21
1774421249.059701,20
1774421249.0764859,19
1774421249.0920987,20
1774421249.1101146,24
1774421249.125455,31
1774421249.1418989,39
1774421249.159119,46
1774421249.175221,55
1774421249.1927993,62
1774421249.209766,66
1774421249.2276037,67
1774421249.2427313,67
1774421249.2598083,66
1774421249.2754166,64
1774421249.2932932,63
1774421249.318043,62
1774421249.3251567,60
1774421249.3507943,59
1774421249.3688495,56
1774421249.3764718,54
1774421249.3983152,52
1774421249.4098334,51
1774421249.4266963,49
1774421249.4480066,48
1774421249.459502,47
1774421249.484441,46
1774421249.4917407,45
1774421249.5085337,43
1774421249.5251899,41
1774421249.541993,40
1774421249.5584822,38
1774421249.585957,36
1774421249.5924535,34
1774421249.6098444,33
1774421249.6251688,31
1774421249.6421933,30
1774421249.6603725,29
1774421249.6764255,28
1774421249.6927366,27
1774421249.709879,26
1774421249.7257903,25
1774421249.756461,24
1774421249.7588956,23
1774421249.7753966,23
1774421249.7961946,22
1774421249.809899,21
1774421249.8275106,20
1774421249.8423913,19
1774421249.86142,18
1774421249.8772483,18
1774421249.8917298,19
1774421249.908525,24
1774421249.9251058,32
1774421249.9418054,40
1774421249.9585052,49
1774421249.9753978,58
1774421249.993138,64
1774421250.008568,67
1774421250.0253534,68
1774421250.0421073,67
1774421250.0599089,66
1774421250.0764892,65
1774421250.0939455,64
1774421250.108572,62
1774421250.1301,61
1774421250.1430314,59
1774421250.1584535,57
1774421250.176519,55
1774421250.1918044,53
1774421250.2095718,52
1774421250.2259984,51
1774421250.2419884,50
1774421250.2588797,49
1774421250.275852,47
1774421250.291765,46
1774421250.3084533,44
1774421250.325068,42
1774421250.3435018,40
1774421250.3748457,39
1774421250.3754678,37
1774421250.392892,35
1774421250.4108467,33
1774421250.4250383,32
1774421250.445857,30
1774421250.4591477,29
1774421250.4750896,28
1774421250.5016856,27
1774421250.5112977,26
1774421250.5314016,25
1774421250.5453153,25
1774421250.5640638,24
1774421250.5788908,23
1774421250.5936174,22
1774421250.6169746,21
1774421250.6276195,22
1774421250.6432407,24
1774421250.6594026,30
1774421250.6768143,36
1774421250.6919878,43
1774421250.709303,51
1774421250.7264853,58
1774421250.7418706,62
1774421250.7587476,64
1774421250.7751563,64
1774421250.7970107,63
1774421250.810635,61
1774421250.826125,60
1774421250.8431523,58
1774421250.86072,56
1774421250.8752382,54
1774421250.8917358,53
1774421250.908407,51
1774421250.9317906,49
1774421250.9418244,48
1774421250.9636664,47
1774421250.9763381,47
1774421250.9935114,46
1774421251.0086794,45
1774421251.0302513,43
1774421251.0423737,42
1774421251.0593777,40
1774421251.0828886,39
1774421251.0920913,37
1774421251.1100175,35
1774421251.125187,33
1774421251.1433218,32
1774421251.1586142,30
1774421251.1751094,29
1774421251.1931598,28
1774421251.2110436,27
1774421251.226982,26
1774421251.2430987,25
1774421251.2589107,24
1774421251.2752671,23
1774421251.2987187,23
1774421251.308529,22
1774421251.325174,21
1774421251.341827,21
1774421251.3641603,23
1774421251.382663,28
1774421251.3960204,35
1774421251.4094803,42
1774421251.42715,50
1774421251.441803,58
1774421251.459338,63
1774421251.4786036,65
1774421251.4915926,65
1774421251.509748,64
1774421251.5250578,62
1774421251.5450954,61
1774421251.5587444,60
1774421251.5781822,58
1774421251.592771,56
1774421251.6085837,54
1774421251.625408,52
1774421251.6416872,50
1774421251.662359,49
1774421251.676056,48
1774421251.6958854,47
1774421251.710049,46
1774421251.7305703,46
1774421251.7423608,44
1774421251.7596235,43
1774421251.7752166,41
1774421251.7948568,40
1774421251.8085384,38
1774421251.8255355,37
1774421251.843345,35
1774421251.8596802,33
1774421251.8751907,31
1774421251.8919866,30
1774421251.9092467,29
1774421251.924867,28
1774421251.9419317,27
1774421251.9599214,26
1774421251.9751966,26
1774421251.993407,25
1774421252.0136452,24
1774421252.035322,24
1774421252.0428507,23
1774421252.0674245,23
1774421252.0764568,24
1774421252.0996492,28
1774421252.1208045,35
1774421252.1328933,41
1774421252.1442096,50
1774421252.1625147,58
1774421252.176524,64
1774421252.191925,67
1774421252.2086818,68
1774421252.2333584,68
1774421252.2466195,67
1774421252.2586505,66
1774421252.2758763,65
1774421252.2915368,64
1774421252.3090615,62
1774421252.3254325,61
1774421252.343037,58
1774421252.3584738,56
1774421252.37672,54
1774421252.40336,53
1774421252.409649,51
1774421252.4324439,50
1774421252.4430785,49
1774421252.4608822,48
1774421252.4753194,46
1774421252.4917874,44
1774421252.5170794,42
1774421252.526958,40
1774421252.5505996,39
1774421252.5666912,38
1774421252.5827875,36
1774421252.5929666,34
1774421252.6098328,33
1774421252.6288266,31
1774421252.642942,30
1774421252.6595383,29
1774421252.6758628,28
1774421252.6915286,27
1774421252.7083716,26
1774421252.726085,26
1774421252.741994,25
1774421252.7586946,24
1774421252.7758694,23
1774421252.7948508,22
1774421252.8125854,22
1774421252.8335907,22
1774421252.842039,25
1774421252.8587203,30
1774421252.87851,38
1774421252.8968017,45
1774421252.910495,54
1774421252.928974,62
1774421252.9426043,67
1774421252.9588096,69
1774421252.976958,70
1774421252.995442,70
1774421253.010033,69
1774421253.027922,68
1774421253.0439427,67
1774421253.061614,66
1774421253.0764227,64
1774421253.093716,62
1774421253.108494,60
1774421253.125889,57
1774421253.1419718,55
1774421253.1609488,53
1774421253.1766982,51
1774421253.192194,50
1774421253.2141647,49
1774421253.2277594,48
1774421253.2416484,46
1774421253.2584896,44
1774421253.275221,42
1774421253.2940698,40
1774421253.316551,39
1774421253.3251216,37
1774421253.3484392,35
1774421253.3644083,34
1774421253.3764539,32
1774421253.3962483,31
1774421253.4112487,30
1774421253.4285278,29
1774421253.4430995,28
1774421253.4584684,27
1774421253.4784784,26
1774421253.4925745,25
1774421253.5085495,25
1774421253.5264692,24
1774421253.5434718,23
1774421253.5724738,23
1774421253.5836892,22
1774421253.6035166,21
1774421253.6096969,20
1774421253.6333926,21
1774421253.643187,24
1774421253.6634207,30
1774421253.676543,38
1774421253.6924381,45
1774421253.71467,54
1774421253.731769,60
1774421253.7479231,64
1774421253.7647586,66
1774421253.7751582,66
1774421253.7925427,66
1774421253.8097267,65
1774421253.8271067,64
1774421253.8431468,63
1774421253.8605118,61
1774421253.8752818,59
1774421253.8919308,57
1774421253.9085941,55
1774421253.925771,52
1774421253.9419117,51
1774421253.9585712,49
1774421253.9752104,48
1774421253.9933956,47
1774421254.014928,45
1774421254.0365055,44
1774421254.0425174,42
1774421254.0591908,40
1774421254.0788555,39
1774421254.1006172,37
1774421254.1097252,35
1774421254.1325896,33
1774421254.143428,31
1774421254.163572,30
1774421254.1764486,29
1774421254.1943386,28
1774421254.2098677,27
1774421254.2268806,26
1774421254.2434547,25
1774421254.2584772,24
1774421254.2753794,24
1774421254.2929153,23
1774421254.3080912,22
1774421254.3251483,21
1774421254.3418124,20
1774421254.370282,19
1774421254.3856091,19
1774421254.3954012,21
1774421254.4098673,25
1774421254.426993,31
1774421254.4430766,39
1774421254.458566,46
1774421254.4764006,53
1774421254.4968407,58
1774421254.5087173,61
1774421254.5251455,61
1774421254.5418465,61
1774421254.5607667,59
1774421254.5764384,58
1774421254.5927064,57
1774421254.6087012,55
1774421254.631943,53
1774421254.6501086,51
1774421254.6581285,49
1774421254.6754088,47
1774421254.6930404,46
1774421254.7085378,45
1774421254.7250974,44
1774421254.74208,43
1774421254.7585788,42
1774421254.7751126,41
1774421254.7920194,40
1774421254.8160734,38
1774421254.832138,37
1774421254.8430958,35
1774421254.8641043,33
1774421254.8800287,31
1774421254.896107,30
1774421254.909827,28
1774421254.932619,27
1774421254.9441228,26
1774421254.9585645,25
1774421254.9753244,24
1774421254.9918923,24
1774421255.0082483,23
1774421255.025253,22
1774421255.0419369,22
1774421255.0598035,21
1774421255.076395,20
1774421255.0974078,19
1774421255.1080797,19
1774421255.1340458,22
1774421255.1430883,28
1774421255.158843,35
1774421255.1756132,42
1774421255.1926274,50
1774421255.2080812,56
1774421255.2261055,60
1774421255.2417612,62
1774421255.2599962,62
1774421255.2752283,61
1774421255.3006546,60
1774421255.3090756,59
1774421255.3251538,58
1774421255.3448412,56
1774421255.3583598,54
1774421255.3786895,52
1774421255.396399,50
1774421255.4119976,49
1774421255.4251044,47
1774421255.445221,46
1774421255.4621403,45
1774421255.4754174,44
1774421255.4929714,43
1774421255.5084927,42
1774421255.5332716,40
1774421255.5491078,39
1774421255.560107,37
1774421255.5762599,35
1774421255.5971375,33
1774421255.6087303,32
1774421255.629104,30
1774421255.641935,28
1774421255.661189,27
1774421255.6760333,26
1774421255.6976326,25
1774421255.708851,25
1774421255.725742,24
1774421255.7431467,23
1774421255.7580872,23
1774421255.7750633,22
1774421255.795498,21
1774421255.809094,20
1774421255.8270798,19
1774421255.8439586,19
1774421255.8598921,20
1774421255.875307,25
1774421255.8930638,31
1774421255.9087,40
1774421255.9253235,47
1774421255.944605,56
1774421255.964046,62
1774421255.9751794,65
1774421255.9952755,66
1774421256.0098238,66
1774421256.0251231,66
1774421256.0432024,65
1774421256.0607774,64
1774421256.0751948,63
1774421256.096031,61
1774421256.1087158,60
1774421256.1249807,57
1774421256.146656,55
1774421256.1586013,53
1774421256.176098,51
1774421256.19329,49
1774421256.2094066,48
1774421256.2282188,47
1774421256.241891,45
1774421256.259257,44
1774421256.2754529,42
1774421256.2930472,40
1774421256.307971,39
1774421256.3255146,37
1774421256.3440456,35
1774421256.358677,33
1774421256.3753254,32
1774421256.3927245,30
1774421256.4090939,29
1774421256.4262948,27
1774421256.4431343,26
1774421256.459476,25
1774421256.475581,24
1774421256.5030534,23
1774421256.5166638,23
1774421256.5264006,22
1774421256.5434527,21
1774421256.5606253,20
1774421256.5763571,20
1774421256.603441,19
1774421256.6158946,19
1774421256.6289153,21
1774421256.6442332,26
1774421256.6617136,33
1774421256.6795328,40
1774421256.6933887,49
1774421256.7079759,57
1774421256.73037,62
1774421256.7430744,65
1774421256.7612164,66
1774421256.775277,66
1774421256.7930524,65
1774421256.8097749,64
1774421256.826603,63
1774421256.8421855,62
1774421256.8580892,60
1774421256.8829353,58
1774421256.9029114,56
1774421256.909931,54
1774421256.9263773,51
1774421256.9475315,50
1774421256.9586515,48
1774421256.9823918,47
1774421256.9930265,46
1774421257.0099447,45
1774421257.026203,44
1774421257.0436728,42
1774421257.0584354,40
1774421257.080428,39
1774421257.0941162,37
1774421257.1120353,35
1774421257.1251705,33
1774421257.141263,32
1774421257.1626513,31
1774421257.1751797,29
1774421257.1931386,28
1774421257.2091746,27
1774421257.225397,26
1774421257.2428515,26
1774421257.2589974,25
1774421257.2803338,24
1774421257.304117,24
1774421257.3097787,23
1774421257.3362744,22
1774421257.3424,21
1774421257.3601925,20
1774421257.3763416,20
1774421257.3981507,21
1774421257.4132578,25
1774421257.4263678,31
1774421257.4453785,39
1774421257.4621868,46
1774421257.4755821,54
1774421257.4927313,60
1774421257.508641,63
1774421257.526164,64
1774421257.5412605,64
1774421257.5585194,63
1774421257.5878289,61
1774421257.604028,60
1774421257.6097398,58
1774421257.63057,56
1774421257.643056,53
1774421257.669332,51
1774421257.6863725,49
1774421257.6930778,47
1774421257.708562,45
1774421257.7344828,44
1774421257.7510128,44
1774421257.7681887,43
1774421257.7805328,42
1774421257.7934442,40
1774421257.812185,40
1774421257.825265,38
1774421257.8448114,36
1774421257.8602436,35
1774421257.875526,33
1774421257.8926709,31
1774421257.908894,30
1774421257.9264746,28
1774421257.9417577,27
1774421257.958406,27
1774421257.9751005,26
1774421257.9918141,26
1774421258.015171,25
1774421258.0351808,25
1774421258.0449946,25
1774421258.0649004,24
1774421258.0837762,23
1774421258.0944324,23
1774421258.1085663,23
1774421258.124971,25
1774421258.1458504,30
1774421258.1628754,36
1774421258.178929,42
1774421258.1920013,50
1774421258.2110376,56
1774421258.2265227,61
1774421258.2431064,63
1774421258.2584553,63
1774421258.2750876,62
1774421258.2924843,60
1774421258.3078766,59
1774421258.3261774,57
1774421258.3436356,55
1774421258.359709,53
1774421258.380741,51
1774421258.4014878,49
1774421258.417478,48
1774421258.4245732,46
1774421258.4429069,45
1774421258.465388,44
1774421258.4813833,44
1774421258.49314,43
1774421258.5130816,41
1774421258.5287426,40
1774421258.5431309,39
1774421258.5585084,37
1774421258.577349,35
1774421258.5930805,33
1774421258.6111195,32
1774421258.625194,30
1774421258.6434615,29
1774421258.65975,28
1774421258.6766858,27
1774421258.6943269,26
1774421258.7124908,25
1774421258.7262864,24
1774421258.7430634,23
1774421258.765648,23
1774421258.7844372,22
1774421258.7949572,21
1774421258.8197587,21
1774421258.8264396,20
1774421258.8478765,21
1774421258.8615475,24
1774421258.8776681,30
1774421258.9047196,37
1774421258.918338,44
1774421258.9256523,51
1774421258.946332,57
1774421258.9597192,61
1774421258.9827752,62
1774421258.9918163,62
1774421259.0084164,61
1774421259.025185,60
1774421259.044228,59
1774421259.0598605,57
1774421259.079318,56
1774421259.101014,54
1774421259.1085138,52
1774421259.1252034,50
1774421259.14299,48
1774421259.1625638,46
1774421259.1781955,45
1774421259.1918554,44
1774421259.2115467,43
1774421259.2279482,42
1774421259.241894,40
1774421259.2583761,40
1774421259.2761388,38
1774421259.2939346,36
1774421259.320022,35
1774421259.3314478,33
1774421259.3482163,31
1774421259.3597348,30
1774421259.3855817,28
1774421259.3938353,27
1774421259.4145718,25
1774421259.4273431,24
1774421259.444131,23
1774421259.4585714,22
1774421259.4765446,21
1774421259.491705,21
1774421259.5087435,20
1774421259.526919,20
1774421259.5477781,19
1774421259.558667,18
1774421259.5752382,18
1774421259.5930455,17
1774421259.6133633,17
1774421259.625952,18
1774421259.6426508,22
1774421259.6583874,29
1774421259.67515,37
1774421259.6930258,44
1774421259.7117112,52
1774421259.7252648,58
1774421259.7418795,62
1774421259.7586133,63
1774421259.7805815,63
1774421259.7918649,62
1774421259.812723,61
1774421259.8326597,60
1774421259.8438513,59
1774421259.8598552,58
1774421259.8755856,56
1774421259.8930311,54
1774421259.908521,52
1774421259.9265056,50
1774421259.9418554,49
1774421259.958002,47
1774421259.9751153,46
1774421259.9911835,45
1774421260.0193098,44
1774421260.026007,43
1774421260.0525043,42
1774421260.0605488,40
1774421260.0755525,39
1774421260.0964236,37
1774421260.1127462,36
1774421260.1274683,34
1774421260.1440663,33
1774421260.1636746,31
1774421260.175794,30
1774421260.1988094,29
1774421260.208398,28
1774421260.2293448,27
1774421260.241852,26
1774421260.258281,26
1774421260.2756321,25
1774421260.2925045,24
1774421260.3089445,24
1774421260.3254464,23
1774421260.3418698,22
1774421260.3577456,21
1774421260.3750646,21
1774421260.3924274,20
1774421260.4203663,19
1774421260.4282553,20
1774421260.4517832,22
1774421260.4586613,27
1774421260.4832702,34
1774421260.493147,41
1774421260.5159044,49
1774421260.5251667,57
1774421260.5489106,62
1774421260.5597506,64
1774421260.5803947,63
1774421260.5933876,62
1774421260.6114445,60
1774421260.6260223,58
1774421260.6440074,57
1774421260.6584504,55
1774421260.675373,53
1774421260.691863,51
1774421260.7085195,49
1774421260.7251778,47
1774421260.7444465,46
1774421260.7584677,45
1774421260.7752287,44
1774421260.793066,43
1774421260.8137274,42
1774421260.8331273,41
1774421260.8420565,40
1774421260.859824,39
1774421260.878784,37
1774421260.8946903,36
1774421260.9085474,34
1774421260.9276004,32
1774421260.9419022,30
1774421260.95848,29
1774421260.9747787,28
1774421260.9917307,27
1774421261.0114374,26
1774421261.0334842,25
1774421261.0437245,24
1774421261.0640504,23
1774421261.0782917,23
1774421261.092067,22
1774421261.1146557,21
1774421261.1294305,21
1774421261.1437314,20
1774421261.158405,19
1774421261.1787872,18
1774421261.1944654,19
1774421261.2129154,22
1774421261.2263665,28
1774421261.2447999,35
1774421261.2584803,42
1774421261.275019,50
1774421261.2920773,57
1774421261.318083,60
1774421261.3250546,61
1774421261.3411336,60
1774421261.3642428,59
1774421261.3836403,57
1774421261.393124,55
1774421261.4149718,53
1774421261.436384,52
1774421261.4486935,50
1774421261.4607918,48
1774421261.476477,46
1774421261.491526,44
1774421261.5082858,43
1774421261.5252938,42
1774421261.5417657,42
1774421261.5619223,41
1774421261.5753844,40
1774421261.592889,40
1774421261.6113575,38
1774421261.625068,36
1774421261.6421711,35
1774421261.6594758,33
1774421261.6755867,31
1774421261.6919255,30
1774421261.7125509,29
1774421261.7272928,27
1774421261.7440264,26
1774421261.7585208,25
1774421261.775297,24
1774421261.7919424,24
1774421261.821194,23
1774421261.827216,23
1774421261.8437142,22
1774421261.8623514,21
1774421261.8749964,21
1774421261.8918972,20
1774421261.9116948,20
1774421261.9269574,21
1774421261.9465082,24
1774421261.96084,31
1774421261.9763286,38
1774421261.9919777,45
1774421262.0098908,53
1774421262.0252094,59
1774421262.0422232,62
1774421262.0584574,63
1774421262.0783215,62
1774421262.0919652,60
1774421262.1084087,58
1774421262.1250503,57
1774421262.1431084,55
1774421262.1588607,53
1774421262.178476,51
1774421262.19306,49
1774421262.2080429,48
1774421262.2252822,46
1774421262.2419999,45
1774421262.259091,44
1774421262.2765257,43
1774421262.2918305,42
1774421262.3158138,41
1774421262.3264146,40
1774421262.3488562,40
1774421262.3587024,38
1774421262.3759265,36
1774421262.3931947,35
1774421262.4091475,33
1774421262.425183,31
1774421262.4413316,30
1774421262.4589498,28
1774421262.475712,27
1774421262.502747,26
1774421262.5158477,25
1774421262.5264356,24
1774421262.5440948,24
1774421262.5621133,23
1774421262.5751493,22
1774421262.5967672,22
1774421262.6158578,21
1774421262.6277566,20
1774421262.6472092,20
1774421262.660502,21
1774421262.676515,25
1774421262.6915345,31
1774421262.7110882,39
1774421262.7242768,47
1774421262.744709,55
1774421262.7588894,61
1774421262.7750282,65
1774421262.7917106,65
1774421262.812805,64
1774421262.82529,63
1774421262.8426309,61
1774421262.8692648,60
1774421262.8854067,58
1774421262.9012175,57
1774421262.9084947,55
