timestamp,bvp
1774413674.6934004,32
1774413674.7100863,31
1774413674.7267308,31
1774413674.7434177,31
1774413674.760052,30
1774413674.7767212,30
1774413674.7934148,29
1774413674.810018,28
1774413674.8274503,28
1774413674.8433871,29
1774413674.8600605,32
1774413674.876739,38
1774413674.89335,45
1774413674.910054,53
1774413674.926725,60
1774413674.9433706,64
1774413674.9600384,64
1774413674.9767747,62
1774413674.995241,59
1774413675.0108757,55
1774413675.0279174,51
1774413675.044935,49
1774413675.0602655,48
1774413675.0773249,47
1774413675.0936768,47
1774413675.11054,47
1774413675.127242,48
1774413675.144194,49
1774413675.1600819,50
1774413675.184155,51
1774413675.1971846,52
1774413675.2106607,52
1774413675.2279932,51
1774413675.248053,49
1774413675.2607524,46
1774413675.2781003,43
1774413675.2938943,40
1774413675.3103828,37
1774413675.3278246,34
1774413675.344301,31
1774413675.3607316,29
1774413675.3775382,26
1774413675.3940582,24
1774413675.4104567,21
1774413675.4287975,20
1774413675.4447458,21
1774413675.4607503,25
1774413675.4883492,33
1774413675.4993358,42
1774413675.515469,55
1774413675.529012,67
1774413675.55647,77
1774413675.5651765,84
1774413675.582106,87
1774413675.598163,86
1774413675.6152384,83
1774413675.628653,79
1774413675.652701,74
1774413675.6619701,69
1774413675.6837773,65
1774413675.695227,61
1774413675.7158825,57
1774413675.7279558,54
1774413675.746978,53
1774413675.7617326,52
1774413675.7784092,52
1774413675.797482,54
1774413675.8111315,56
1774413675.8272195,59
1774413675.8491352,62
1774413675.8609068,64
1774413675.8887424,66
1774413675.894894,67
1774413675.9199553,68
1774413675.931612,68
1774413675.944698,69
1774413675.966863,70
1774413675.9766383,70
1774413675.9973345,71
1774413676.0191247,71
1774413676.027088,71
1774413676.04486,69
1774413676.0614722,66
1774413676.0819168,64
1774413676.0980203,64
1774413676.1140032,65
1774413676.127577,67
1774413676.1489115,70
1774413676.1622145,72
1774413676.178367,72
1774413676.19408,70
1774413676.2103,66
1774413676.2291887,60
1774413676.2567017,54
1774413676.2635067,48
1774413676.289956,42
1774413676.2957354,38
1774413676.316648,34
1774413676.3380609,32
1774413676.343438,33
1774413676.363721,37
1774413676.376779,41
1774413676.402257,47
1774413676.4099693,54
1774413676.430321,60
1774413676.4495983,63
1774413676.461132,63
1774413676.4812427,59
1774413676.4972336,53
1774413676.5134945,44
1774413676.529157,34
1774413676.5457876,23
1774413676.5613735,14
1774413676.5837328,6
1774413676.597443,1
1774413676.662216,2
1774413676.6861145,9
1774413676.7036994,18
1774413676.7124543,28
1774413676.729853,38
1774413676.7457745,47
1774413676.76091,54
1774413676.7773197,58
1774413676.7999485,58
1774413676.815711,57
1774413676.8310118,53
1774413676.8477056,48
1774413676.8644156,43
1774413676.880065,40
1774413676.895794,35
1774413676.9119465,31
1774413676.933804,27
1774413676.9438045,25
1774413676.9616005,25
1774413676.99101,26
1774413677.0025315,28
1774413677.0234227,30
1774413677.0284507,33
1774413677.0461287,34
1774413677.0618496,35
1774413677.0791585,34
1774413677.1030416,33
1774413677.1162255,31
1774413677.1358087,29
1774413677.1454387,27
1774413677.167815,24
1774413677.177246,22
1774413677.20744,20
1774413677.221527,18
1774413677.228791,17
1774413677.2479901,18
1774413677.2703285,22
1774413677.2793095,28
1774413677.296451,36
1774413677.3183842,45
1774413677.327338,54
1774413677.3467114,61
1774413677.364507,65
1774413677.3903906,66
1774413677.4033835,64
1774413677.4224548,60
1774413677.433482,56
1774413677.4544501,52
1774413677.4664166,47
1774413677.4797883,43
1774413677.5025845,40
1774413677.5116537,37
1774413677.530315,34
1774413677.543544,32
1774413677.5625556,31
1774413677.5765986,31
1774413677.5943038,31
1774413677.6103933,31
1774413677.6327813,32
1774413677.6459002,32
1774413677.6615112,31
1774413677.6851506,29
1774413677.703046,27
1774413677.723614,25
1774413677.7362928,22
1774413677.7563539,20
1774413677.768044,18
1774413677.7766907,16
1774413677.8003187,15
1774413677.8210146,14
1774413677.837009,13
1774413677.8513722,12
1774413677.8681767,13
1774413677.882581,14
1774413677.9011524,19
1774413677.9118161,26
1774413677.9333773,35
1774413677.9437006,44
1774413677.9652116,54
1774413677.976649,62
1774413677.998844,67
1774413678.0098896,68
1774413678.0274622,66
1774413678.0455089,63
1774413678.0659702,58
1774413678.0897784,54
1774413678.0982153,49
1774413678.114861,44
1774413678.1279378,40
1774413678.157119,37
1774413678.1645856,34
1774413678.1800237,32
1774413678.203134,32
1774413678.2155085,32
1774413678.234995,34
1774413678.2456331,35
1774413678.2663727,36
1774413678.2785668,35
1774413678.3052514,33
1774413678.3115532,30
1774413678.330574,26
1774413678.344046,22
1774413678.3675725,19
1774413678.3777804,17
1774413678.395273,15
1774413678.4104474,14
1774413678.4269824,14
1774413678.4444394,14
1774413678.466237,14
1774413678.4856946,15
1774413678.5019417,16
1774413678.5185664,17
1774413678.53755,19
1774413678.556222,22
1774413678.5688772,27
1774413678.5858345,34
1774413678.600452,42
1774413678.6179893,52
1774413678.6338415,62
1774413678.6498816,70
1774413678.665989,76
1774413678.6818619,77
1774413678.6977572,76
1774413678.7140815,72
1774413678.72738,67
1774413678.7443693,60
1774413678.7606099,54
1774413678.7775419,47
1774413678.793389,41
1774413678.8098624,37
1774413678.8367617,32
1774413678.8501673,30
1774413678.8716662,28
1774413678.8793395,29
1774413678.9045236,30
1774413678.9102254,32
1774413678.931873,33
1774413678.952649,33
1774413678.9679866,32
1774413678.9831831,30
1774413679.0000622,27
1774413679.0160303,23
1774413679.0286615,20
1774413679.0439038,17
1774413679.0675993,13
1774413679.0799267,10
1774413679.0968578,8
1774413679.1119115,5
1774413679.1322331,4
1774413679.1434052,3
1774413679.1731992,3
1774413679.1764803,3
1774413679.2058196,4
1774413679.213956,5
1774413679.2348087,7
1774413679.2459223,13
1774413679.2660127,20
1774413679.2862897,29
1774413679.3014,38
1774413679.3116004,46
1774413679.3290896,54
1774413679.3484926,58
1774413679.3652277,59
1774413679.37714,58
1774413679.397109,55
1774413679.4174783,52
1774413679.428407,48
1774413679.4451907,44
1774413679.4628403,40
1774413679.4836814,37
1774413679.5060608,33
1774413679.5114527,31
1774413679.5311503,29
1774413679.5449502,28
1774413679.5700243,28
1774413679.5788798,29
1774413679.6051202,30
1774413679.6100907,31
1774413679.6370182,32
1774413679.6470509,32
1774413679.6691296,31
1774413679.6799498,30
1774413679.7010028,29
1774413679.717131,27
1774413679.736057,26
1774413679.746699,24
1774413679.765053,22
1774413679.781103,21
1774413679.7971237,20
1774413679.813287,20
1774413679.8339536,20
1774413679.8450909,19
1774413679.8690698,19
1774413679.8771467,20
1774413679.9043417,23
1774413679.9116976,28
1774413679.939929,35
1774413679.9452527,43
1774413679.9632883,51
1774413679.9815035,58
1774413680.0068166,63
1774413680.0157075,64
1774413680.0278864,63
1774413680.0433633,59
1774413680.0673041,55
1774413680.0828977,50
1774413680.0988202,44
1774413680.1182837,40
1774413680.1357238,37
1774413680.1474786,33
1774413680.166665,30
1774413680.1838202,29
1774413680.1958253,28
1774413680.2152267,28
1774413680.2395825,29
1774413680.2434402,30
1774413680.2746649,31
1774413680.2808883,32
1774413680.3063982,32
1774413680.3112915,31
1774413680.3272011,29
1774413680.3441808,27
1774413680.36411,25
1774413680.3857372,23
1774413680.402032,21
1774413680.4170341,19
1774413680.4360285,18
1774413680.4469862,16
1774413680.4624865,16
1774413680.4821846,16
1774413680.4973347,17
1774413680.5114484,21
1774413680.5301373,26
1774413680.5461824,34
1774413680.5617483,42
1774413680.5843954,51
1774413680.5940695,58
1774413680.6099894,63
1774413680.6307442,64
1774413680.649266,63
1774413680.6668262,60
1774413680.6798248,56
1774413680.705644,51
1774413680.7113643,46
1774413680.7336488,42
1774413680.7463105,39
1774413680.769598,36
1774413680.777497,33
1774413680.8016088,32
1774413680.8097267,31
1774413680.8321176,32
1774413680.8490398,33
1774413680.8686383,34
1774413680.8800755,36
1774413680.8993134,36
1774413680.912886,36
1774413680.9298255,36
1774413680.9528143,34
1774413680.9750042,33
1774413680.9767015,31
1774413681.007078,30
1774413681.0164936,28
1774413681.0275047,27
1774413681.044688,26
1774413681.060458,25
1774413681.080507,25
1774413681.0955791,26
1774413681.1111696,29
1774413681.1326904,34
1774413681.1478944,41
1774413681.1671631,49
1774413681.1764562,57
1774413681.203405,64
1774413681.2230673,68
1774413681.2461417,69
1774413681.2535753,67
1774413681.2641864,64
1774413681.2815564,59
1774413681.301766,54
1774413681.319163,49
1774413681.3330898,44
1774413681.3444216,40
1774413681.3704386,38
1774413681.38886,35
1774413681.400638,33
1774413681.4154394,32
1774413681.4316282,33
1774413681.4492378,33
1774413681.4696996,34
1774413681.4791288,35
1774413681.501452,35
1774413681.51281,35
1774413681.5334663,34
1774413681.5483196,33
1774413681.5654068,32
1774413681.5791874,30
1774413681.5974822,29
1774413681.6102269,28
1774413681.6398993,27
1774413681.6454532,26
1774413681.6653366,25
1774413681.6776342,24
1774413681.697286,25
1774413681.7106307,28
1774413681.7362068,32
1774413681.752946,39
1774413681.7663717,46
1774413681.7824953,54
1774413681.796142,61
1774413681.811693,65
1774413681.8355343,66
1774413681.8473663,64
1774413681.8651664,61
1774413681.8813443,56
1774413681.9006517,51
1774413681.9155369,46
1774413681.929614,42
1774413681.9465065,39
1774413681.9637156,36
1774413681.9770606,34
1774413681.9949965,33
1774413682.0118604,33
1774413682.027745,33
1774413682.0438116,34
1774413682.0602374,35
1774413682.079864,36
1774413682.0979936,36
1774413682.1161144,36
1774413682.132232,34
1774413682.1541471,33
1774413682.173421,31
1774413682.179278,29
1774413682.2006147,27
1774413682.217858,25
1774413682.2264433,24
1774413682.2519815,22
1774413682.2677302,22
1774413682.2763705,21
1774413682.2953331,23
1774413682.3117085,26
1774413682.3315759,32
1774413682.3438995,40
1774413682.361407,48
1774413682.378586,57
1774413682.393052,63
1774413682.4099114,67
1774413682.4269056,68
1774413682.4481618,66
1774413682.463647,62
1774413682.480232,58
1774413682.4963233,53
1774413682.5220242,48
1774413682.5334375,44
1774413682.543219,40
1774413682.568327,38
1774413682.5801156,36
1774413682.6006534,34
1774413682.6152627,34
1774413682.6331112,34
1774413682.6472337,35
1774413682.664674,36
1774413682.6807024,36
1774413682.6966116,36
1774413682.7127597,35
1774413682.730473,34
1774413682.743276,32
1774413682.7623978,30
1774413682.783979,28
1774413682.7947066,27
1774413682.8133678,25
1774413682.8333902,24
1774413682.847798,23
1774413682.8653383,23
1774413682.8769586,22
1774413682.9003944,23
1774413682.9190674,25
1774413682.93537,30
1774413682.945247,38
1774413682.9648046,46
1774413682.9844148,55
1774413682.9956918,64
1774413683.0156426,70
1774413683.0271115,73
1774413683.0437167,72
1774413683.063826,69
1774413683.0792787,65
1774413683.098797,60
1774413683.111622,54
1774413683.1289907,49
1774413683.1435785,45
1774413683.1598105,41
1774413683.1857946,38
1774413683.1961763,35
1774413683.2153592,33
1774413683.23544,32
1774413683.2552588,31
1774413683.2644439,32
1774413683.2862835,33
1774413683.2981305,34
1774413683.3119044,35
1774413683.3322492,36
1774413683.3503761,36
1774413683.3663301,35
1774413683.382413,35
1774413683.3937395,33
1774413683.414404,32
1774413683.4371972,30
1774413683.4466088,28
1774413683.4623237,26
1774413683.477671,24
1774413683.4945211,22
1774413683.5104365,21
1774413683.527975,21
1774413683.5551667,23
1774413683.559752,28
1774413683.578776,36
1774413683.592963,44
1774413683.6101656,53
1774413683.628565,62
1774413683.6482582,68
1774413683.6672037,70
1774413683.6818311,70
1774413683.6982656,67
1774413683.7177622,62
1774413683.7337313,57
1774413683.750714,52
1774413683.764792,48
1774413683.7897742,43
1774413683.7972043,40
1774413683.8130596,37
1774413683.8291912,35
1774413683.8432026,34
1774413683.8603086,33
1774413683.8770044,33
1774413683.894497,34
1774413683.910025,35
1774413683.9302504,35
1774413683.9552243,35
1774413683.96556,34
1774413683.9834862,33
1774413683.993733,32
1774413684.0203402,30
1774413684.0271645,28
1774413684.0442293,27
1774413684.059937,25
1774413684.077455,24
1774413684.1004684,22
1774413684.116402,21
1774413684.1266677,20
1774413684.1431837,20
1774413684.168865,20
1774413684.1803043,20
1774413684.2015533,23
1774413684.2154179,28
1774413684.2432675,35
1774413684.2435539,43
1774413684.2732108,52
1774413684.2899554,60
1774413684.295188,66
1774413684.3156083,68
1774413684.327254,66
1774413684.3539908,62
1774413684.360132,56
1774413684.3860192,48
1774413684.3928802,40
1774413684.4141798,31
1774413684.4352453,22
1774413684.4476194,14
1774413684.459556,8
1774413684.4787185,6
1774413684.4978113,6
1774413684.5155947,10
1774413684.5331712,16
1774413684.5480537,24
1774413684.561764,32
1774413684.5843673,39
1774413684.6042457,44
1774413684.6138287,49
1774413684.6268358,51
1774413684.6472735,53
1774413684.6609936,53
1774413684.6781108,52
1774413684.6945333,51
1774413684.7175174,50
1774413684.7272198,49
1774413684.7531388,48
1774413684.7596624,46
1774413684.7831583,45
1774413684.801147,43
1774413684.817249,42
1774413684.8329167,40
1774413684.8469539,40
1774413684.8642805,41
1774413684.8769932,44
1774413684.8942297,50
1774413684.91149,57
1774413684.9265513,66
1774413684.9447732,74
1774413684.9601295,81
1774413684.9768581,84
1774413684.9949062,85
1774413685.0097961,83
1774413685.0262623,80
1774413685.0435069,75
1774413685.0616992,70
1774413685.0762851,64
1774413685.0940804,58
1774413685.1102362,52
1774413685.128721,47
1774413685.1449425,42
1774413685.1601622,40
1774413685.183562,39
1774413685.1928155,39
1774413685.2111123,39
1774413685.2266781,40
1774413685.2438471,40
1774413685.2599857,40
1774413685.280541,40
1774413685.2948463,40
1774413685.3134098,39
1774413685.326421,37
1774413685.3473284,35
1774413685.372583,34
1774413685.3793614,32
1774413685.3945456,31
1774413685.4117913,30
1774413685.4274912,28
1774413685.452288,27
1774413685.461183,27
1774413685.4821239,27
1774413685.4936528,30
1774413685.513498,35
1774413685.5297163,41
1774413685.5478477,49
1774413685.5595717,57
1774413685.5799363,64
1774413685.5933669,68
1774413685.6110163,69
1774413685.639708,67
1774413685.655364,63
1774413685.6654437,58
1774413685.6777868,53
1774413685.6937292,47
1774413685.7099423,42
1774413685.7376156,38
1774413685.7500527,34
1774413685.7715547,31
1774413685.7763517,29
1774413685.7931442,27
1774413685.810102,27
1774413685.8263786,28
1774413685.844901,29
1774413685.863154,29
1774413685.8855746,30
1774413685.895319,30
1774413685.9136808,30
1774413685.929904,29
1774413685.951862,28
1774413685.960117,27
1774413685.9816134,26
1774413685.993521,24
1774413686.0139785,23
1774413686.0279663,22
1774413686.0437615,21
1774413686.0607078,20
1774413686.0804765,21
1774413686.093186,23
1774413686.1200266,28
1774413686.1261365,36
1774413686.1473825,44
1774413686.1662877,53
1774413686.1888673,61
1774413686.1957884,67
1774413686.2206218,69
1774413686.2333946,68
1774413686.250602,64
1774413686.2631342,58
1774413686.2846224,52
1774413686.295619,45
1774413686.316541,39
1774413686.330243,33
1774413686.3502393,28
1774413686.3628476,24
1774413686.385406,22
1774413686.3953364,21
1774413686.41406,22
1774413686.4275663,23
1774413686.4441931,26
1774413686.4625924,28
1774413686.4874299,30
1774413686.495441,31
1774413686.5136533,32
1774413686.5375192,33
1774413686.5450602,33
1774413686.5641263,33
1774413686.5847821,33
1774413686.6021807,32
1774413686.616268,32
1774413686.6312127,32
1774413686.6440663,31
1774413686.6631792,30
1774413686.6820273,29
1774413686.6978703,29
1774413686.717226,31
1774413686.727093,36
1774413686.7461405,41
1774413686.7616754,49
1774413686.7808492,58
1774413686.7936583,65
1774413686.8127255,70
1774413686.830608,72
1774413686.8507895,71
1774413686.86392,67
1774413686.8879642,62
1774413686.894519,56
1774413686.9196332,49
1774413686.9351249,43
1774413686.9511294,39
1774413686.9642189,34
1774413686.9797568,32
1774413686.9992716,30
1774413687.0175247,31
1774413687.0272436,32
1774413687.0440023,34
1774413687.0655317,36
1774413687.0836291,38
1774413687.095782,40
1774413687.11379,40
1774413687.1275218,40
1774413687.143939,39
1774413687.1608415,39
1774413687.1768346,37
1774413687.192859,36
1774413687.2156641,35
1774413687.2331693,34
1774413687.2532434,33
1774413687.2693782,32
1774413687.2803006,32
1774413687.3024733,32
1774413687.3165338,35
1774413687.3291695,40
1774413687.354528,47
1774413687.367149,56
1774413687.3839774,65
1774413687.39988,72
1774413687.4172425,76
1774413687.4275358,78
1774413687.4487216,76
1774413687.4627678,72
1774413687.482805,66
1774413687.4958105,60
1774413687.5118434,54
1774413687.52693,48
1774413687.545641,42
1774413687.5599127,39
1774413687.582478,36
1774413687.6033535,35
1774413687.6143336,36
1774413687.635603,38
1774413687.6483512,40
1774413687.6655974,43
1774413687.6863823,45
1774413687.7026668,47
1774413687.7096004,48
1774413687.7310784,47
1774413687.7431233,47
1774413687.760789,45
1774413687.7795918,44
1774413687.798666,42
1774413687.8147092,40
1774413687.8274934,40
1774413687.8449144,38
1774413687.8633797,37
1774413687.8823087,37
1774413687.8937478,40
1774413687.9176226,44
1774413687.9332058,50
1774413687.9503636,57
1774413687.9659154,64
1774413687.9886308,69
1774413687.9944808,71
1774413688.019041,70
1774413688.0267076,66
1774413688.0466535,61
1774413688.0609727,54
1774413688.0831168,47
1774413688.10038,40
1774413688.1181467,35
1774413688.1342318,31
1774413688.146234,29
1774413688.1616337,29
1774413688.1814702,30
1774413688.197258,33
1774413688.2129142,35
1774413688.2270577,37
1774413688.2456,39
1774413688.2608674,40
1774413688.2769077,40
1774413688.2958312,39
1774413688.3140864,38
1774413688.3337245,36
1774413688.3445516,35
1774413688.3597798,33
1774413688.3802955,31
1774413688.395685,29
1774413688.414332,28
1774413688.4367027,27
1774413688.4492042,28
1774413688.4687824,32
1774413688.4787347,38
1774413688.4933586,45
1774413688.5116398,53
1774413688.5332332,60
1774413688.5482378,64
1774413688.5661378,65
1774413688.5764732,62
1774413688.5953288,58
1774413688.6111755,52
1774413688.6262834,45
1774413688.6427164,40
1774413688.6637251,34
1774413688.6862721,29
1774413688.6951878,26
1774413688.716401,23
1774413688.7283204,23
1774413688.7454326,24
1774413688.7593853,25
1774413688.7906446,27
1774413688.7926571,28
1774413688.8121827,29
1774413688.8268237,28
1774413688.847838,27
1774413688.8592756,26
1774413688.8808863,23
1774413688.896836,21
1774413688.9118533,18
1774413688.9312336,16
1774413688.9464836,14
1774413688.960371,12
1774413688.9828126,11
1774413688.999378,11
1774413689.018052,13
1774413689.0260198,18
1774413689.044878,26
1774413689.059712,35
1774413689.0783663,45
1774413689.0932915,55
1774413689.1191316,62
1774413689.128748,65
1774413689.1509848,64
1774413689.1639569,61
1774413689.1829963,57
1774413689.1939662,51
1774413689.2173684,45
1774413689.2286477,40
1774413689.2482693,35
1774413689.263045,30
1774413689.2776217,27
1774413689.304552,24
1774413689.314002,23
1774413689.3337836,23
1774413689.3547542,24
1774413689.3671277,25
1774413689.3858232,26
1774413689.3967931,27
1774413689.4103549,26
1774413689.4291244,25
1774413689.4546683,24
1774413689.4638412,21
1774413689.4777148,19
1774413689.4951615,16
1774413689.5176024,14
1774413689.5281157,11
1774413689.5497844,9
1774413689.5624974,8
1774413689.5818598,6
1774413689.5975587,7
1774413689.609284,10
1774413689.629814,15
1774413689.645753,23
1774413689.668964,33
1774413689.6760736,41
1774413689.7023222,49
1774413689.7096946,54
1774413689.7321181,56
1774413689.7566211,54
1774413689.770037,51
1774413689.7895517,46
1774413689.8013058,41
1774413689.8212876,36
1774413689.8347938,31
1774413689.8523223,27
1774413689.8632965,23
1774413689.8803809,20
1774413689.8951714,18
1774413689.9161098,16
1774413689.9290187,16
1774413689.9565504,16
1774413689.967072,16
1774413689.9758835,16
1774413689.996766,15
1774413690.0106053,14
1774413690.0282457,13
1774413690.0432003,11
1774413690.0600705,9
1774413690.0763583,7
1774413690.1033807,5
1774413690.1230004,4
1774413690.1406167,2
1774413690.153381,1
1774413690.25162,4
1774413690.2633874,11
1774413690.2835732,18
1774413690.2958739,26
1774413690.3155522,33
1774413690.3316603,38
1774413690.3443584,40
1774413690.363048,40
1774413690.375909,38
1774413690.4029698,35
1774413690.4113767,31
1774413690.4304092,27
1774413690.4445062,24
1774413690.4610074,20
1774413690.4822366,18
1774413690.502434,16
1774413690.5095105,14
1774413690.5350075,13
1774413690.5524352,13
1774413690.569241,13
1774413690.5782757,14
1774413690.5945113,14
1774413690.6168308,14
1774413690.6268778,14
1774413690.6494846,13
1774413690.6597235,12
1774413690.6808646,11
1774413690.6959987,10
1774413690.7112145,8
1774413690.7289915,7
1774413690.7450795,6
1774413690.7602909,5
1774413690.776406,4
1774413690.7925313,4
1774413690.8162158,3
1774413690.8362384,3
1774413690.845625,3
1774413690.8712478,5
1774413690.8802834,8
1774413690.9038959,13
1774413690.9188178,19
1774413690.929523,25
1774413690.950766,31
1774413690.967097,35
1774413690.98303,37
1774413690.9997196,37
1774413691.014767,31
1774413691.0273137,26
1774413691.0440087,20
1774413691.0646234,15
1774413691.079042,9
1774413691.094684,4
1774413691.5433776,5
1774413691.5678074,15
1774413691.5785925,24
1774413691.6030953,30
1774413691.6110346,33
1774413691.6338675,32
1774413691.650115,29
1774413691.666122,25
1774413691.6811297,19
1774413691.696577,15
1774413691.7139275,10
1774413691.730164,6
1774413691.746111,4
1774413691.7623374,2
1774413691.777655,1
1774413691.7935708,2
1774413691.8127124,3
1774413691.832352,5
1774413691.8565335,6
1774413691.865551,7
1774413691.8814993,7
1774413691.8965795,7
1774413691.9129043,5
1774413691.9355283,3
1774413691.94738,1
1774413692.1542432,1
1774413692.173282,8
1774413692.1840289,15
1774413692.1991155,23
1774413692.2221365,30
1774413692.2314143,35
1774413692.2567742,36
1774413692.2608511,34
1774413692.2825816,31
1774413692.3021977,26
1774413692.3133595,22
1774413692.3342743,17
1774413692.3443415,14
1774413692.3662126,11
1774413692.3757927,9
1774413692.398202,8
1774413692.412604,8
1774413692.4261599,9
1774413692.4498408,10
1774413692.4603107,12
1774413692.4782848,14
1774413692.4987602,15
1774413692.5102885,15
1774413692.5263672,14
1774413692.5426018,13
1774413692.5678797,12
1774413692.5858934,10
1774413692.6050007,9
1774413692.6131253,8
1774413692.6359048,7
1774413692.6528807,7
1774413692.6709275,6
1774413692.67773,6
1774413692.69356,6
1774413692.7114136,6
1774413692.7263527,7
1774413692.7443967,8
1774413692.7620237,12
1774413692.7763305,18
1774413692.7958539,25
1774413692.8092327,32
1774413692.8278003,39
1774413692.8427224,42
1774413692.86906,44
1774413692.8758175,42
1774413692.903361,40
1774413692.915788,35
1774413692.9377813,30
1774413692.954794,26
1774413692.9601066,22
1774413692.98728,19
1774413693.0033355,17
1774413693.0138962,16
1774413693.0265079,16
1774413693.0427322,17
1774413693.0653346,19
1774413693.0783575,20
1774413693.09599,22
1774413693.1126602,22
1774413693.1326382,22
1774413693.1433716,21
1774413693.1679761,20
1774413693.176496,18
1774413693.1954494,16
1774413693.2093713,14
1774413693.227375,13
1774413693.243388,11
1774413693.2593563,10
1774413693.2840652,9
1774413693.2924929,8
1774413693.324138,7
1774413693.3286803,7
1774413693.3438413,8
1774413693.363737,12
1774413693.3760982,18
1774413693.4000628,25
1774413693.4147723,32
1774413693.4352572,39
1774413693.4477005,42
1774413693.4662845,43
1774413693.483285,41
1774413693.4993362,38
1774413693.5140455,33
1774413693.5326505,28
1774413693.5455017,24
1774413693.5598674,20
1774413693.5757751,17
1774413693.5944397,15
1774413693.6164975,14
1774413693.6257243,14
1774413693.6493182,16
1774413693.6663072,18
1774413693.6764627,20
1774413693.7021039,22
1774413693.7105436,22
1774413693.7315583,23
1774413693.7516327,22
1774413693.769501,20
1774413693.7831452,18
1774413693.8016028,17
1774413693.8093653,15
1774413693.8316586,14
1774413693.8460646,13
1774413693.8637197,12
1774413693.8795564,11
1774413693.8956869,11
1774413693.916534,11
1774413693.9284787,11
1774413693.944022,12
1774413693.9686527,17
1774413693.9757807,22
1774413694.0044632,29
1774413694.0230377,37
1774413694.0261757,42
1774413694.0440257,47
1774413694.0625215,48
1774413694.0817618,46
1774413694.1028926,43
1774413694.115633,39
1774413694.1388023,34
1774413694.144049,30
1774413694.1626267,26
1774413694.177241,23
1774413694.202274,21
1774413694.2130234,20
1774413694.230659,21
1774413694.2467237,22
1774413694.2627213,24
1774413694.2788224,26
1774413694.2932706,28
1774413694.3096616,28
1774413694.3301458,29
1774413694.3451493,28
1774413694.3746,26
1774413694.3777237,25
1774413694.4065864,23
1774413694.417598,21
1774413694.4374366,19
1774413694.4436004,18
1774413694.4666817,17
1774413694.4866798,16
1774413694.4998403,15
1774413694.5187666,14
1774413694.5346463,14
1774413694.5511296,64
1774413694.5595105,17
1774413694.5797322,21
1774413694.5987544,27
1774413694.614761,34
1774413694.6320353,40
1774413694.6464827,46
1774413694.662442,50
1774413694.6825478,50
1774413694.692332,47
1774413694.7125468,43
1774413694.7402618,39
1774413694.7432015,35
1774413694.7623987,31
1774413694.7767985,27
1774413694.798835,25
1774413694.8089278,23
1774413694.8357334,23
1774413694.8469381,24
1774413694.8597753,25
1774413694.8860445,27
1774413694.898784,29
1774413694.9141386,30
1774413694.929814,31
1774413694.9471269,31
1774413694.9681482,30
1774413694.9780695,28
1774413695.000277,26
1774413695.0101998,25
1774413695.0260894,24
1774413695.0459592,22
1774413695.0625482,21
1774413695.0782638,20
1774413695.0967214,20
1774413695.1145334,19
1774413695.1379242,20
1774413695.1436353,19
1774413695.1651983,19
1774413695.1771154,21
1774413695.2019663,24
1774413695.2122934,30
1774413695.2340212,36
1774413695.2464955,43
1774413695.2662497,50
1774413695.2897432,56
1774413695.2980645,59
1774413695.315992,58
1774413695.3300776,55
1774413695.344714,51
1774413695.3621783,47
1774413695.3807023,42
1774413695.3943734,40
1774413695.4101715,37
1774413695.4258754,35
1774413695.4491024,35
1774413695.460809,35
1774413695.480312,36
1774413695.5049074,38
1774413695.5142581,40
1774413695.537893,40
1774413695.5498557,41
1774413695.5645676,41
1774413695.5755627,40
1774413695.600232,38
1774413695.6142986,36
1774413695.6338973,34
1774413695.6499894,32
1774413695.6658225,30
1774413695.679776,28
1774413695.7060592,27
1774413695.7103863,26
1774413695.7299805,24
1774413695.7459407,23
1774413695.7620084,23
1774413695.7779822,23
1774413695.7939281,25
1774413695.8218248,29
1774413695.8395255,35
1774413695.8479233,41
1774413695.8732777,49
1774413695.8784978,55
1774413695.896025,59
1774413695.9115574,61
1774413695.9340508,60
1774413695.9437149,56
1774413695.9649255,52
1774413695.9756343,47
1774413695.996438,42
1774413696.0140073,39
1774413696.025929,35
1774413696.0436716,33
1774413696.0630062,32
1774413696.0763476,32
1774413696.0963397,33
1774413696.1123683,35
1774413696.1336882,36
1774413696.1472356,37
1774413696.1604714,37
1774413696.183864,36
1774413696.2002597,35
1774413696.2174156,33
1774413696.235838,31
1774413696.245744,29
1774413696.2603984,27
1774413696.281689,25
1774413696.296412,24
1774413696.3147364,22
1774413696.3256414,22
1774413696.3456516,21
1774413696.3686464,20
1774413696.3764462,20
1774413696.3961372,21
1774413696.412874,24
1774413696.4325063,29
1774413696.4480588,36
1774413696.4668612,43
1774413696.4830678,52
1774413696.4959638,58
1774413696.5124173,63
1774413696.5289133,64
1774413696.543097,62
1774413696.5600839,59
1774413696.5821269,55
1774413696.603327,50
1774413696.6198616,46
1774413696.626114,43
1774413696.654168,40
1774413696.662986,39
1774413696.6801183,39
1774413696.7023408,39
1774413696.7122488,40
1774413696.727444,41
1774413696.7438662,42
1774413696.7654238,43
1774413696.7814302,43
1774413696.7956333,43
1774413696.8134775,41
1774413696.8268335,40
1774413696.845343,39
1774413696.8612502,37
1774413696.8779063,35
1774413696.893408,33
1774413696.9095516,31
1774413696.9396834,30
1774413696.9485223,29
1774413696.9667385,28
1774413696.9782887,27
1774413697.0048187,26
1774413697.0172787,26
1774413697.0254679,26
1774413697.0439875,27
1774413697.0631945,31
1774413697.0790927,36
1774413697.1014602,43
1774413697.1111774,52
1774413697.1284556,60
1774413697.1438525,67
1774413697.1654418,71
1774413697.1818085,72
1774413697.1924894,69
1774413697.2134726,65
1774413697.2353787,61
1774413697.245425,56
1774413697.2616882,52
1774413697.2774937,48
1774413697.2987578,45
1774413697.3097808,43
1774413697.3254673,42
1774413697.3504503,42
1774413697.3731685,42
1774413697.3771868,43
1774413697.4054477,44
1774413697.4154284,45
1774413697.4376047,45
1774413697.447753,44
1774413697.4625974,43
1774413697.4839976,41
1774413697.5013528,40
1774413697.5127373,37
1774413697.533481,35
1774413697.5446281,33
1774413697.5655084,32
1774413697.5814226,30
1774413697.5922346,29
1774413697.61189,28
1774413697.640098,27
1774413697.6456456,27
1774413697.6614983,26
1774413697.6853669,25
1774413697.6927953,26
1774413697.7115214,27
1774413697.7255452,32
1774413697.7436695,38
1774413697.7653666,46
1774413697.7846181,55
1774413697.8011174,64
1774413697.8111584,71
1774413697.8372571,75
1774413697.8489645,75
1774413697.8682437,72
1774413697.8804147,68
1774413697.899761,63
1774413697.9159703,58
1774413697.929556,53
1774413697.9484522,49
1774413697.9593542,46
1774413697.9804485,44
1774413697.9920793,43
1774413698.0122921,42
1774413698.028664,43
1774413698.042593,44
1774413698.0601697,45
1774413698.0856888,45
1774413698.1038952,45
1774413698.1194067,45
1774413698.1293812,43
1774413698.1514826,41
1774413698.172207,40
1774413698.1777651,38
1774413698.204302,35
1774413698.2167282,33
1774413698.2358072,32
1774413698.2512157,31
1774413698.266918,30
1774413698.2808805,29
1774413698.298788,28
1774413698.3104568,28
1774413698.3262632,28
1774413698.3459198,28
1774413698.3610325,27
1774413698.3777745,28
1774413698.3921032,28
1774413698.4097736,29
1774413698.425966,33
1774413698.4489355,39
1774413698.4725428,47
1774413698.4898515,58
1774413698.499464,69
1774413698.5104325,79
1774413698.5377884,86
1774413698.5441852,89
1774413698.569859,88
1774413698.5821853,84
1774413698.6004531,80
1774413698.6157293,74
1774413698.6350465,69
1774413698.6480803,64
1774413698.6638873,60
1774413698.6811404,57
1774413698.695301,55
1774413698.711847,54
1774413698.7275832,54
1774413698.7438905,55
1774413698.7600083,56
1774413698.775868,57
1774413698.7925189,57
1774413698.8182795,57
1774413698.8301182,56
1774413698.843219,54
1774413698.8718474,52
1774413698.8770905,49
1774413698.8945658,46
1774413698.9106007,44
1774413698.9283576,42
1774413698.9489262,40
1774413698.9670353,40
1774413698.98192,38
1774413698.996875,37
1774413699.010566,36
1774413699.0288434,34
1774413699.0431664,33
1774413699.060021,31
1774413699.0765195,30
1774413699.0953426,29
1774413699.1129298,31
1774413699.1270478,34
1774413699.150084,40
1774413699.1618586,49
1774413699.1855474,60
1774413699.1920156,70
1774413699.215944,77
1774413699.236261,82
1774413699.2520294,82
1774413699.268016,79
1774413699.276213,72
1774413699.2944202,65
1774413699.31476,58
1774413699.3254483,50
1774413699.3481028,43
1774413699.36593,39
1774413699.3760865,36
1774413699.400247,34
1774413699.4112818,34
1774413699.4277992,36
1774413699.4435725,39
1774413699.4596555,41
1774413699.4757583,44
1774413699.4959502,45
1774413699.5098655,46
1774413699.5257888,45
1774413699.5522516,44
1774413699.5614436,41
1774413699.5800903,39
1774413699.5921037,37
1774413699.6146824,35
1774413699.6295528,33
1774413699.6474574,31
1774413699.664342,30
1774413699.6803274,29
1774413699.6957664,28
1774413699.7155466,27
1774413699.7307255,26
1774413699.743491,25
1774413699.7626839,25
1774413699.7788641,26
1774413699.796245,29
1774413699.815775,36
1774413699.8259118,43
1774413699.8482866,53
1774413699.8619704,63
1774413699.8755164,71
1774413699.895516,76
1774413699.9163003,77
1774413699.927232,76
1774413699.9508672,72
1774413699.9594333,66
1774413699.9810426,61
1774413699.9923356,55
1774413700.014888,50
1774413700.0258737,46
1774413700.042294,43
1774413700.060713,41
1774413700.0761688,41
1774413700.0926816,42
1774413700.110132,44
1774413700.1266994,46
1774413700.1429,47
1774413700.1608076,49
1774413700.1847186,49
1774413700.1960075,48
1774413700.2167757,47
1774413700.2348864,45
1774413700.2534597,43
1774413700.2625241,41
1774413700.2855575,39
1774413700.2955124,37
1774413700.3119228,36
1774413700.3272676,35
1774413700.3477151,34
1774413700.3607717,33
1774413700.3816364,32
1774413700.391953,32
1774413700.412669,33
1774413700.42676,35
1774413700.4456906,40
1774413700.4586475,48
1774413700.477672,58
1774413700.4919522,69
1774413700.5113716,79
1774413700.5270004,86
1774413700.54663,89
1774413700.5628536,88
1774413700.5841534,84
1774413700.597645,77
1774413700.621269,70
1774413700.631771,62
1774413700.6450593,55
1774413700.668803,49
1774413700.684371,44
1774413700.6932125,40
1774413700.7157571,38
1774413700.7299569,36
1774413700.7478633,36
1774413700.75928,37
1774413700.7798328,37
1774413700.791956,38
1774413700.8094378,37
1774413700.8273315,36
1774413700.843424,34
1774413700.8596022,31
1774413700.8771589,28
1774413700.8952487,25
1774413700.9114947,22
1774413700.9261904,20
1774413700.944053,18
1774413700.9670112,16
1774413700.9777722,15
1774413700.9937387,14
1774413701.0152862,14
1774413701.0330765,15
1774413701.0422597,18
1774413701.061992,26
1774413701.0842443,35
1774413701.0967708,46
1774413701.1153734,59
1774413701.129564,70
1774413701.147936,77
1774413701.1624517,80
1774413701.1793098,79
1774413701.1949172,74
1774413701.2108502,68
1774413701.2253306,61
1774413701.251567,55
1774413701.2617922,49
1774413701.2791247,43
1774413701.3066893,40
1774413701.318349,37
1774413701.334688,36
1774413701.3464074,35
1774413701.3663652,36
1774413701.3836286,38
1774413701.397855,39
1774413701.4121287,40
1774413701.4330735,40
1774413701.4439018,39
1774413701.4631345,37
1774413701.4849136,34
1774413701.4968178,31
1774413701.5141559,29
1774413701.5298767,27
1774413701.546217,25
1774413701.5591877,24
1774413701.5772445,24
1774413701.5923078,23
1774413701.6095798,22
1774413701.626621,23
1774413701.6422858,25
1774413701.6732755,30
1774413701.6769567,39
1774413701.6937842,49
1774413701.7127686,62
1774413701.7362032,74
1774413701.7543108,84
1774413701.7677908,89
1774413701.7860787,90
1774413701.8023324,87
1774413701.8145397,82
1774413701.8327281,75
1774413701.8515015,68
1774413701.8666751,62
1774413701.8760135,56
1774413701.8928096,51
1774413701.9142196,47
1774413701.9302135,44
1774413701.9463482,42
1774413701.9624207,42
1774413701.9783378,42
1774413701.992209,43
1774413702.0107334,44
1774413702.0292332,45
1774413702.0425801,45
1774413702.0589132,44
1774413702.0771537,42
1774413702.097857,40
1774413702.115536,38
1774413702.1350322,36
1774413702.1529512,34
1774413702.1693149,32
1774413702.1843085,30
1774413702.1993248,29
1774413702.2121942,28
1774413702.2323372,27
1774413702.247244,27
1774413702.2643328,30
1774413702.2781806,36
1774413702.2964413,43
1774413702.3213968,54
1774413702.3321147,65
1774413702.3443031,74
1774413702.3603566,81
1774413702.3755639,83
1774413702.392241,81
1774413702.420905,77
1774413702.4252632,70
1774413702.455296,63
1774413702.4660008,56
1774413702.4770737,50
1774413702.4929187,45
1774413702.5161333,42
1774413702.5325105,40
1774413702.5511239,39
1774413702.5609176,39
1774413702.5831316,40
1774413702.5991397,42
1774413702.610393,44
1774413702.6314588,45
1774413702.6478746,45
1774413702.6615846,44
1774413702.6791902,42
1774413702.6952205,40
1774413702.7107198,37
1774413702.7273233,34
1774413702.7476215,30
1774413702.7592862,27
1774413702.7753587,24
1774413702.7919753,22
1774413702.8235505,20
1774413702.8355482,18
1774413702.8553636,17
1774413702.8711588,16
1774413702.8799117,17
1774413702.902321,20
1774413702.9173214,27
1774413702.9351745,37
1774413702.9511929,48
1774413702.9670506,61
1774413702.9811516,72
1774413702.9993093,80
1774413703.011136,83
1774413703.030655,83
1774413703.0422635,79
1774413703.0589767,73
1774413703.078406,66
1774413703.0943687,60
1774413703.108552,53
1774413703.1266017,48
1774413703.1454017,43
1774413703.159121,40
1774413703.1823215,37
1774413703.1923752,36
1774413703.215183,36
1774413703.2258632,37
1774413703.2539551,37
1774413703.2620127,38
1774413703.2836888,37
1774413703.3006568,36
1774413703.3151248,33
1774413703.3326828,30
1774413703.3439507,27
1774413703.3637226,24
1774413703.3797665,21
1774413703.3957043,19
1774413703.410875,17
1774413703.4301913,16
1774413703.4448884,15
1774413703.4588897,15
1774413703.4776626,16
1774413703.4984064,16
1774413703.5171611,17
1774413703.5350485,18
1774413703.546208,21
1774413703.5598946,26
1774413703.586893,35
1774413703.5917912,44
1774413703.6210709,56
1774413703.630221,67
1774413703.6496553,76
1774413703.6595674,80
1774413703.6776412,80
1774413703.698958,76
1774413703.7127113,70
1774413703.7318535,63
1774413703.7467532,55
1774413703.7628717,48
1774413703.7813962,42
1774413703.7948864,39
1774413703.8108764,35
1774413703.827901,34
1774413703.846617,33
1774413703.8588367,33
1774413703.8754063,35
1774413703.8954656,36
1774413703.9132059,37
1774413703.9281387,38
1774413703.9473867,37
1774413703.960158,36
1774413703.986752,34
1774413703.9931703,32
1774413704.011007,29
1774413704.0343652,27
1774413704.0423012,25
1774413704.0593462,23
1774413704.0780735,21
1774413704.0957265,20
1774413704.113737,19
1774413704.133334,19
1774413704.1458542,19
1774413704.1631675,19
1774413704.1804712,19
1774413704.1979957,19
1774413704.213147,21
1774413704.2254293,25
1774413704.2472043,33
1774413704.2602108,42
1774413704.2751708,54
1774413704.2951388,66
1774413704.3154652,76
1774413704.3291612,82
1774413704.3466125,83
1774413704.3651552,81
1774413704.3754776,75
1774413704.4016316,69
1774413704.411222,61
1774413704.4326854,54
1774413704.447393,48
1774413704.4627297,43
1774413704.4783368,40
1774413704.4970381,38
1774413704.5104907,37
1774413704.5264142,37
1774413704.5425746,38
1774413704.5585651,40
1774413704.5817926,41
1774413704.5984292,41
1774413704.619714,41
1774413704.6266744,40
1774413704.6466289,39
1774413704.664493,37
1774413704.6782181,35
1774413704.6955142,33
1774413704.7124476,30
1774413704.7287786,29
1774413704.7489858,27
1774413704.7666538,26
1774413704.7798886,26
1774413704.7953823,25
1774413704.8100681,25
1774413704.8294027,25
1774413704.8432627,27
1774413704.8593092,32
1774413704.8773227,40
1774413704.894206,50
1774413704.9093165,61
1774413704.9293387,73
1774413704.9504042,82
1774413704.958443,87
1774413704.983088,87
1774413704.9924667,83
1774413705.0196254,77
1774413705.0310488,70
1774413705.0425916,63
1774413705.0586076,56
1774413705.0771685,49
1774413705.0946937,44
1774413705.1139212,40
1774413705.1328506,37
1774413705.1422405,35
1774413705.1626055,34
1774413705.1762302,35
1774413705.2005196,36
1774413705.2118115,37
1774413705.2305698,37
1774413705.2431502,36
1774413705.2597075,35
1774413705.275152,33
1774413705.3001878,31
1774413705.3173597,28
1774413705.3353033,26
1774413705.3546386,24
1774413705.3677497,22
1774413705.3865943,21
1774413705.401011,20
1774413705.4123511,19
1774413705.4329748,18
1774413705.4505358,19
1774413705.4600823,22
1774413705.4787035,29
1774413705.4964054,39
1774413705.5144734,49
1774413705.5305142,62
1774413705.5433018,72
1774413705.5626385,80
1774413705.5757198,83
1774413705.5945432,81
1774413705.6104524,76
1774413705.628669,70
1774413705.6424956,62
1774413705.6584961,55
1774413705.6789432,48
1774413705.6953118,43
1774413705.7162268,40
1774413705.7266042,37
1774413705.7484846,35
1774413705.7673323,35
1774413705.785523,37
1774413705.7996624,38
1774413705.8090675,40
1774413705.831625,40
1774413705.8503792,40
1774413705.8649268,39
1774413705.8810678,36
1774413705.8985362,33
1774413705.9107563,29
1774413705.9272072,26
1774413705.9450479,23
1774413705.96241,22
1774413705.9778385,20
1774413705.9933496,20
1774413706.0094454,19
1774413706.0274086,20
1774413706.0424817,21
1774413706.059157,23
1774413706.0779839,28
1774413706.0938404,36
1774413706.1091368,47
1774413706.1357782,59
1774413706.1488342,72
1774413706.1683445,84
1774413706.1843023,91
1774413706.1975996,94
1774413706.2160633,93
1774413706.2317612,89
1774413706.2478693,83
1774413706.2639787,76
1774413706.279822,69
1774413706.297614,62
1774413706.3111954,57
1774413706.3276696,52
1774413706.342827,48
1774413706.3599732,46
1774413706.3780777,45
1774413706.4070873,45
1774413706.417616,46
1774413706.4316843,46
1774413706.4547613,46
1774413706.4695256,46
1774413706.4749677,44
1774413706.5058951,42
1774413706.51649,40
1774413706.5332782,37
1774413706.542662,35
1774413706.5660548,33
1774413706.5811958,31
1774413706.592756,30
1774413706.613159,29
1774413706.6265445,28
1774413706.649295,27
1774413706.6677299,26
1774413706.6762924,27
1774413706.693886,26
1774413706.7114692,26
1774413706.7336564,29
1774413706.7433712,35
1774413706.7616794,43
1774413706.7755828,52
1774413706.7978203,65
1774413706.8083186,76
1774413706.8308916,83
1774413706.8496993,87
1774413706.8654435,85
1774413706.8824887,80
1774413706.8916993,73
1774413706.9135106,64
1774413706.9295025,57
1774413706.941719,49
1774413706.9661617,43
1774413706.9778264,40
1774413706.9991016,36
1774413707.0113876,34
1774413707.0249677,34
1774413707.0416267,34
1774413707.0616841,35
1774413707.077415,36
1774413707.0927315,37
1774413707.1140509,36
1774413707.1397793,34
1774413707.1439302,32
1774413707.1615095,28
1774413707.175945,25
1774413707.1926026,21
1774413707.208758,18
1774413707.2257142,15
1774413707.2428262,12
1774413707.2657113,10
1774413707.2800374,9
1774413707.295918,7
1774413707.3144212,6
1774413707.3282344,5
1774413707.346132,4
1774413707.3600307,5
1774413707.3817127,9
1774413707.3918948,16
1774413707.4177437,26
1774413707.4249952,37
1774413707.4452524,49
1774413707.4681094,58
1774413707.4799547,64
1774413707.4959283,65
1774413707.51141,62
1774413707.5259328,57
1774413707.5443308,50
1774413707.5653794,42
1774413707.5760546,36
1774413707.5957148,30
1774413707.6083236,24
1774413707.6304586,20
1774413707.6464877,18
1774413707.666595,17
1774413707.6756895,17
1774413707.6945066,19
1774413707.7104354,21
1774413707.728966,23
1774413707.7448916,23
1774413707.758655,23
1774413707.7855248,22
1774413707.791872,19
1774413707.8097436,16
1774413707.826755,13
1774413707.8482394,10
1774413707.8628757,7
1774413707.8791776,5
1774413707.9008865,4
1774413707.9119992,3
1774413707.9345224,2
1774413707.9433255,1
1774413707.9608347,1
1774413707.9779325,2
1774413707.9934056,3
1774413708.0082757,8
1774413708.0254555,15
1774413708.042327,28
1774413708.0594323,41
1774413708.074873,55
1774413708.1063483,67
1774413708.1101322,77
1774413708.1249106,81
1774413708.1470723,79
1774413708.1690965,75
1774413708.1853898,68
1774413708.200195,63
1774413708.2168474,56
1774413708.2271965,49
1774413708.249864,43
1774413708.2605207,39
1774413708.2836702,35
1774413708.302638,30
1774413708.3118508,29
1774413708.3274968,29
1774413708.3454056,29
1774413708.3601546,30
1774413708.3764086,31
1774413708.3977094,31
1774413708.4161322,31
1774413708.426768,30
1774413708.4440675,28
1774413708.460132,27
1774413708.475199,25
1774413708.503385,24
1774413708.5154452,23
1774413708.5390255,22
1774413708.5460286,21
1774413708.5710971,20
1774413708.5797608,20
1774413708.591711,20
1774413708.6176918,20
1774413708.626522,20
1774413708.6467168,20
1774413708.6678033,20
1774413708.6815686,21
1774413708.6974063,24
1774413708.713058,30
1774413708.7286546,40
1774413708.744632,51
1774413708.7610354,63
1774413708.7771392,76
1774413708.7965388,85
1774413708.809237,89
1774413708.8249757,89
1774413708.8414977,85
1774413708.8621879,79
1774413708.8758945,71
1774413708.90489,64
1774413708.918492,57
1774413708.9326653,51
1774413708.9471617,46
1774413708.9663994,42
1774413708.983347,40
1774413708.9970496,39
1774413709.0082505,38
1774413709.032203,39
1774413709.0422919,40
1774413709.0585425,40
1774413709.0757616,40
1774413709.106263,39
1774413709.1111774,38
1774413709.12579,35
1774413709.1434078,32
1774413709.168802,28
1774413709.176317,25
1774413709.1922765,22
1774413709.2088645,20
1774413709.2253213,17
1774413709.24348,16
1774413709.2595007,15
1774413709.2832477,15
1774413709.3007114,14
1774413709.320252,14
1774413709.331189,14
1774413709.3513615,14
1774413709.3683724,14
1774413709.3832984,15
1774413709.3921223,16
1774413709.4086552,19
1774413709.4321623,26
1774413709.4475782,36
1774413709.4633713,48
1774413709.479743,62
1774413709.495827,75
1774413709.5119653,85
1774413709.5281518,90
1774413709.5440314,90
1774413709.559786,85
1774413709.574852,79
1774413709.5919478,71
1774413709.6082013,63
1774413709.6257691,55
1774413709.6490896,48
1774413709.6660438,43
1774413709.6807582,40
1774413709.7018685,37
1774413709.7157915,35
1774413709.7306373,35
1774413709.7457557,35
1774413709.7677333,36
1774413709.7803495,36
1774413709.796202,36
1774413709.8097465,35
1774413709.8352628,33
1774413709.8467438,31
1774413709.8627453,28
1774413709.878756,25
1774413709.8931568,23
1774413709.9094896,20
1774413709.9268463,18
1774413709.9430504,15
1774413709.958317,13
1774413709.9800563,12
1774413709.9915583,11
1774413710.0083148,10
1774413710.0357077,10
1774413710.042909,10
1774413710.0591147,10
1774413710.075377,10
1774413710.0965343,11
1774413710.1173792,11
1774413710.1256242,12
1774413710.14172,15
1774413710.1653771,22
1774413710.1806161,33
1774413710.1967754,44
1774413710.210468,58
1774413710.2248309,72
1774413710.247663,83
1774413710.2636597,88
1774413710.2775695,88
1774413710.293422,84
1774413710.310021,77
1774413710.331733,69
1774413710.3446434,60
1774413710.372965,52
1774413710.3760955,46
1774413710.3921745,40
1774413710.40816,38
1774413710.427516,35
1774413710.4525173,35
1774413710.4636922,35
1774413710.47949,37
1774413710.4971638,39
1774413710.515494,40
1774413710.5263057,40
1774413710.5436444,40
1774413710.5595484,40
1774413710.5799398,38
1774413710.5958505,35
1774413710.6152625,33
1774413710.6276324,30
1774413710.6436818,28
1774413710.6609445,26
1774413710.6757278,24
1774413710.692127,23
1774413710.711187,23
1774413710.7275288,23
1774413710.7444017,23
1774413710.7589645,23
1774413710.7755883,24
1774413710.7929907,25
1774413710.8101742,25
1774413710.8268867,26
1774413710.8452828,27
1774413710.8590667,30
1774413710.8835428,36
1774413710.9001102,44
1774413710.9155874,56
1774413710.9319818,69
1774413710.9453783,82
1774413710.9622917,93
1774413710.9831772,99
1774413710.9916067,100
1774413711.0120425,96
1774413711.0265276,90
1774413711.0426733,82
1774413711.058617,74
1774413711.0778186,66
1774413711.0955415,59
1774413711.1112278,53
1774413711.125655,49
1774413711.1477673,47
1774413711.1602805,47
1774413711.1753285,48
1774413711.202545,51
1774413711.2171414,54
1774413711.2247093,56
1774413711.2457688,57
1774413711.2665615,56
1774413711.2795248,55
1774413711.2985754,52
1774413711.3091533,48
1774413711.326115,44
1774413711.3466742,40
1774413711.3617895,37
1774413711.3751836,34
1774413711.393642,32
1774413711.4095774,30
1774413711.425774,28
1774413711.4415507,28
1774413711.4587717,27
1774413711.477726,27
1774413711.5005498,27
1774413711.5115392,27
1774413711.5361402,30
1774413711.5456688,35
1774413711.5585928,43
1774413711.5785158,54
1774413711.591589,67
1774413711.6163383,79
1774413711.6306756,89
1774413711.6483364,96
1774413711.6644998,97
1774413711.6804914,94
1774413711.6963556,88
1774413711.7124743,80
1774413711.7253416,71
1774413711.7444243,63
1774413711.7598,55
1774413711.7759473,48
1774413711.7915432,43
1774413711.81038,40
1774413711.8258212,39
1774413711.850947,40
1774413711.8581018,41
1774413711.879015,43
1774413711.8986444,44
1774413711.91293,45
1774413711.9339807,44
1774413711.9481382,42
1774413711.962021,40
1774413711.9753833,37
1774413711.991614,33
1774413712.012935,30
1774413712.0289986,26
1774413712.0426505,23
1774413712.058298,21
1774413712.07697,19
1774413712.091891,17
1774413712.109251,15
1774413712.126147,14
1774413712.1420815,14
1774413712.167971,15
1774413712.1835103,18
1774413712.1916306,26
1774413712.215561,36
1774413712.2309282,49
1774413712.2487476,63
1774413712.2581644,75
1774413712.2796254,84
1774413712.2959468,88
1774413712.315183,86
1774413712.3286996,81
1774413712.3479965,72
1774413712.361845,63
1774413712.3799264,54
1774413712.3943546,45
1774413712.4119575,39
1774413712.4279697,33
1774413712.4472175,29
1774413712.460154,27
1774413712.4810572,26
1774413712.491761,26
1774413712.51116,28
1774413712.5351949,30
1774413712.5488985,32
1774413712.5601723,33
1774413712.575897,33
1774413712.5961719,31
1774413712.6157765,29
1774413712.6294386,26
1774413712.6448119,23
1774413712.662697,20
1774413712.6802304,18
1774413712.6933804,16
1774413712.7142694,14
1774413712.7268755,13
1774413712.7461874,12
1774413712.7590907,12
1774413712.7782025,12
1774413712.7913005,14
1774413712.8103037,20
1774413712.8246503,30
1774413712.8422735,42
1774413712.8625207,57
1774413712.8751967,73
1774413712.8942666,87
1774413712.919445,96
1774413712.927349,100
1774413712.9542994,98
1774413712.9599001,93
1774413712.9853654,85
1774413713.0022614,78
1774413713.0157597,70
1774413713.033783,63
1774413713.0415232,57
1774413713.0598042,52
1774413713.0828116,48
1774413713.0979044,46
1774413713.1142285,45
1774413713.1254215,46
1774413713.1458414,48
1774413713.1586168,50
1774413713.1778078,51
1774413713.1931438,51
1774413713.2089045,50
1774413713.2247784,48
1774413713.2494678,45
1774413713.2583964,42
1774413713.2788663,40
1774413713.2915447,36
1774413713.3154976,34
1774413713.324823,32
1774413713.3444405,30
1774413713.3591332,29
1774413713.377335,27
1774413713.392421,27
1774413713.4161923,26
1774413713.4322789,26
1774413713.4470923,28
1774413713.4611828,33
1774413713.4768238,41
1774413713.4947317,53
1774413713.510351,67
1774413713.5279458,81
1774413713.544249,92
1774413713.559406,98
1774413713.583911,100
1774413713.5916097,96
1774413713.621275,90
1774413713.635052,83
1774413713.6441844,75
1774413713.6582427,67
1774413713.681947,61
1774413713.699961,55
1774413713.718119,49
1774413713.730432,45
1774413713.7481155,42
1774413713.7663207,41
1774413713.7826822,41
1774413713.7986422,41
1774413713.8082836,41
1774413713.8296423,41
1774413713.8426523,40
1774413713.8661845,38
1774413713.8776536,35
1774413713.8954787,31
1774413713.9142795,28
1774413713.9284058,24
1774413713.9418128,21
1774413713.9579017,19
1774413713.9786458,17
1774413713.9914682,16
1774413714.0081735,15
1774413714.0246384,14
1774413714.0414903,14
1774413714.0591412,14
1774413714.0766199,14
1774413714.0961685,14
1774413714.1163125,15
1774413714.125167,19
1774413714.147268,26
1774413714.1608076,37
1774413714.1845047,49
1774413714.204896,63
1774413714.215225,76
1774413714.2267327,86
1774413714.2458084,90
1774413714.264607,90
1774413714.2754152,85
1774413714.2958815,79
1774413714.3183231,71
1774413714.327374,64
1774413714.3426886,56
1774413714.3588853,50
1774413714.3858635,44
1774413714.3916361,40
1774413714.4129303,37
1774413714.4292495,35
1774413714.4504983,35
1774413714.4636219,35
1774413714.4818215,36
1774413714.4921777,36
1774413714.513399,36
1774413714.5290463,35
1774413714.5458686,33
1774413714.5619895,30
1774413714.5778978,28
1774413714.5928545,25
1774413714.609086,23
1774413714.631059,20
1774413714.6475356,19
1774413714.664258,17
1774413714.6856115,16
1774413714.6952739,16
1774413714.7194796,15
1774413714.7271504,15
1774413714.7495565,15
1774413714.7595255,16
1774413714.7824712,16
1774413714.7919114,17
1774413714.8144197,18
1774413714.8276992,22
1774413714.8442123,29
1774413714.8627236,38
1774413714.8800437,49
1774413714.896423,62
1774413714.9104414,74
1774413714.926502,83
1774413714.9415605,88
1774413714.9644444,88
1774413714.9772158,84
1774413714.9961321,78
1774413715.0118582,71
1774413715.0281692,64
1774413715.0421553,56
1774413715.0590506,49
1774413715.0750272,44
1774413715.0946317,40
1774413715.112856,37
1774413715.1273465,36
1774413715.1497548,36
1774413715.1601274,36
1774413715.181584,37
1774413715.1912057,38
1774413715.2134473,37
1774413715.233422,36
1774413715.2423146,34
1774413715.261755,32
1774413715.2771022,30
1774413715.2912414,27
1774413715.3089793,25
1774413715.3257518,24
1774413715.3519592,23
1774413715.3713043,22
1774413715.3840222,21
1774413715.3994594,21
1774413715.4119685,21
1774413715.4300666,20
1774413715.4415529,20
1774413715.4591491,20
1774413715.483805,19
1774413715.499405,19
1774413715.5079007,19
1774413715.5281436,22
1774413715.545965,27
1774413715.559011,35
1774413715.5775511,44
1774413715.5911918,56
1774413715.6099808,66
1774413715.6270673,73
1774413715.643165,76
1774413715.6579354,75
1774413715.6754198,71
1774413715.6917253,65
1774413715.7097502,57
1774413715.7349381,50
1774413715.7453175,43
1774413715.7644572,38
1774413715.780292,33
1774413715.7997231,30
1774413715.812059,28
1774413715.8311355,27
1774413715.8461733,28
1774413715.8625178,29
1774413715.8777158,29
1774413715.8966541,29
1774413715.9126031,28
1774413715.9285016,26
1774413715.9446158,23
1774413715.9607959,20
1774413715.9782255,16
1774413715.9919543,13
1774413716.008643,10
1774413716.0244844,8
1774413716.0413902,6
1774413716.0581744,5
1774413716.076351,3
1774413716.0948114,3
1774413716.1082516,2
1774413716.126944,2
1774413716.1412573,2
1774413716.1663766,2
1774413716.1816711,2
1774413716.1993454,5
1774413716.2158678,10
1774413716.2315762,18
1774413716.2526317,28
1774413716.2600403,40
1774413716.2799695,51
1774413716.2952259,61
1774413716.3119388,67
1774413716.328192,69
1774413716.3564997,67
1774413716.3600266,63
1774413716.375957,57
1774413716.3919914,51
1774413716.4167323,46
1774413716.425767,41
1774413716.4517257,37
1774413716.4668567,34
1774413716.4863305,32
1774413716.504046,30
1774413716.5153306,30
1774413716.5342715,31
1774413716.5411131,32
1774413716.5670197,33
1774413716.5834465,33
1774413716.5973742,32
1774413716.6170137,30
1774413716.6315098,27
1774413716.6460092,24
1774413716.66366,21
1774413716.6763515,18
1774413716.6950676,16
1774413716.7085316,14
1774413716.7269108,12
1774413716.7444358,11
1774413716.7595465,11
1774413716.781279,11
1774413716.7911825,10
1774413716.8194368,10
1774413716.8244412,10
1774413716.8424566,11
1774413716.8582563,11
1774413716.8777823,12
1774413716.9003644,14
1774413716.924689,18
1774413716.9251058,26
1774413716.9493287,36
1774413716.9631968,46
1774413716.9782495,57
1774413716.9969823,66
1774413717.0135844,72
1774413717.0297973,73
1774413717.0423884,71
1774413717.058783,66
1774413717.0767138,61
1774413717.0955696,55
1774413717.1084886,50
1774413717.1245313,45
1774413717.1412663,41
1774413717.159218,38
1774413717.1870458,35
1774413717.1948953,33
1774413717.2096658,33
1774413717.2243512,32
1774413717.2429743,33
1774413717.2629175,33
1774413717.2816477,33
1774413717.2998235,32
1774413717.3092778,31
1774413717.3258138,28
1774413717.3461306,26
1774413717.3596737,23
1774413717.3748565,20
1774413717.3943346,18
1774413717.4085023,16
1774413717.4315386,15
1774413717.4422672,15
1774413717.4582496,14
1774413717.4747818,14
1774413717.4935558,14
1774413717.5107005,14
1774413717.5270824,14
1774413717.5539012,14
1774413717.5647752,14
1774413717.5756981,14
1774413717.593161,13
1774413717.6129513,13
1774413717.6311736,15
1774413717.6413913,19
1774413717.659354,26
1774413717.6755707,36
1774413717.6947932,46
1774413717.7234292,57
1774413717.7289653,66
1774413717.7419758,72
1774413717.7590628,74
1774413717.7784214,72
1774413717.8013825,68
1774413717.808358,62
1774413717.8248177,57
1774413717.842145,52
1774413717.8674583,47
1774413717.8811226,43
1774413717.8950577,40
1774413717.9093578,37
1774413717.9256973,35
1774413717.9523556,34
1774413717.9595506,34
1774413717.9815147,34
1774413717.9922743,34
1774413718.0080805,34
1774413718.027675,33
1774413718.0427847,31
1774413718.0595999,29
1774413718.0768366,27
1774413718.0961893,24
1774413718.1125782,21
1774413718.1256604,19
1774413718.1413126,17
1774413718.1672468,16
1774413718.1763566,15
1774413718.192352,14
1774413718.2245572,13
1774413718.224674,13
1774413718.2415028,13
1774413718.261618,13
1774413718.2769432,13
1774413718.2954888,14
1774413718.3124278,14
1774413718.3255978,15
1774413718.34943,16
1774413718.3592472,17
1774413718.384956,20
1774413718.3991964,26
1774413718.4155798,33
1774413718.4264007,41
1774413718.4410458,51
1774413718.4602122,61
1774413718.480043,69
1774413718.4914522,73
1774413718.511879,73
1774413718.5288324,70
1774413718.54269,65
1774413718.5591621,59
1774413718.5910866,53
1774413718.5916297,47
1774413718.607796,41
1774413718.6322641,38
1774413718.641056,33
1774413718.6695604,30
1774413718.6744215,28
1774413718.7006006,27
1774413718.7084672,26
1774413718.7307754,26
1774413718.742153,26
1774413718.7591562,26
1774413718.7755208,25
1774413718.805667,24
1774413718.808161,22
1774413718.8298883,20
1774413718.8458354,17
1774413718.86174,15
1774413718.8743026,14
1774413718.8911822,13
1774413718.9076736,12
1774413718.9376345,12
1774413718.9556653,11
1774413718.969984,12
1774413718.9754703,12
1774413719.0033562,13
1774413719.0149636,14
1774413719.026637,14
1774413719.0414011,15
1774413719.0622637,15
1774413719.07681,16
1774413719.0921817,16
1774413719.1161866,17
1774413719.1262589,18
1774413719.148731,22
1774413719.1622772,29
1774413719.1757023,39
1774413719.1962643,49
1774413719.2131164,60
1774413719.2249715,70
1774413719.242042,76
1774413719.2631385,78
1774413719.2743382,77
1774413719.298504,73
1774413719.3139763,68
1774413719.3284035,63
1774413719.341671,57
1774413719.3670394,52
1774413719.386252,48
1774413719.4037921,44
1774413719.4160254,41
1774413719.4250052,40
1774413719.441071,40
1774413719.4640825,40
1774413719.483623,40
1774413719.4958348,41
1774413719.5156696,41
1774413719.5316365,41
1774413719.5420194,40
1774413719.559327,38
1774413719.5772808,35
1774413719.594937,33
1774413719.608479,31
1774413719.629115,29
1774413719.6456463,27
1774413719.6576662,25
1774413719.6746733,24
1774413719.6911597,23
1774413719.717558,21
1774413719.7282574,20
1774413719.7523842,20
1774413719.7617261,20
1774413719.774367,20
1774413719.7993314,20
1774413719.8082776,20
1774413719.8309216,20
1774413719.841081,20
1774413719.8629673,22
1774413719.8805108,27
1774413719.895284,35
1774413719.907792,44
1774413719.9398558,55
1774413719.9437423,65
1774413719.959564,73
1774413719.9757137,77
1774413719.9955132,77
1774413720.0080671,73
1774413720.0274491,68
1774413720.0418408,61
1774413720.0587347,54
1774413720.075534,47
1774413720.0960035,41
1774413720.1155243,38
1774413720.1339428,34
1774413720.153849,32
1774413720.1706598,31
1774413720.1819,32
1774413720.1916726,33
1774413720.2090545,35
1774413720.2255476,36
1774413720.2411027,36
1774413720.2618675,35
1774413720.2742567,33
1774413720.2921143,31
1774413720.3093905,28
1774413720.3243787,25
1774413720.3442354,23
1774413720.357614,20
1774413720.377515,18
1774413720.3927913,17
1774413720.4078705,16
1774413720.424392,15
1774413720.452804,14
1774413720.4576926,14
1774413720.485474,14
1774413720.4911113,14
1774413720.507553,14
1774413720.5320098,14
1774413720.5453973,15
1774413720.558879,16
1774413720.5754676,20
1774413720.596423,27
1774413720.6117165,37
1774413720.6252372,48
1774413720.6412516,61
1774413720.6604238,72
1774413720.6817644,79
1774413720.6925724,83
1774413720.7100565,82
1774413720.7248008,78
1774413720.7431695,72
1774413720.7619662,66
1774413720.777173,60
1774413720.791512,55
1774413720.8079355,50
1774413720.8277824,46
1774413720.8518515,43
1774413720.8678794,42
1774413720.877604,41
1774413720.8918943,41
1774413720.915039,42
1774413720.9303741,43
1774413720.9411566,44
1774413720.963398,43
1774413720.9765906,42
1774413720.9929862,40
1774413721.0087736,38
1774413721.0283284,36
1774413721.041183,33
1774413721.0590107,31
1774413721.0755227,29
1774413721.09798,27
1774413721.1111896,26
1774413721.1244447,24
1774413721.1410162,24
1774413721.1632485,24
1774413721.1761465,24
1774413721.1913328,24
1774413721.208141,24
1774413721.2310498,24
1774413721.2408447,24
1774413721.2656054,24
1774413721.2754521,25
1774413721.2910557,28
1774413721.3082762,34
1774413721.3295414,41
1774413721.3429801,53
1774413721.3640714,65
1774413721.3777158,77
1774413721.3997326,86
1774413721.4078324,90
1774413721.4250386,91
1774413721.447337,87
1774413721.4658127,81
1774413721.4806252,75
1774413721.4933794,69
1774413721.5132585,62
1774413721.528592,57
1774413721.5434978,52
1774413721.5638309,48
1774413721.5756145,45
1774413721.5994015,43
1774413721.6076186,43
1774413721.6263943,43
1774413721.64085,43
1774413721.6634495,43
1774413721.678426,43
1774413721.6972272,41
1774413721.7074513,40
1774413721.725712,37
1774413721.7413588,34
1774413721.7593148,31
1774413721.7748106,28
1774413721.7912598,25
1774413721.8097315,23
1774413721.8335202,21
1774413721.8510163,20
1774413721.8588192,19
1774413721.8864396,19
1774413721.895647,18
1774413721.9113781,18
1774413721.9345758,19
1774413721.943192,19
1774413721.9639535,19
1774413721.9790003,20
1774413721.991655,20
1774413722.0084586,22
1774413722.0258043,27
1774413722.0417933,35
1774413722.058253,45
1774413722.0784721,58
1774413722.09458,70
1774413722.1105,81
1774413722.1284466,88
1774413722.1425164,90
1774413722.1587164,88
1774413722.1744256,83
1774413722.1955254,77
1774413722.2152991,70
1774413722.2244883,64
1774413722.2473989,57
1774413722.25776,52
1774413722.2792032,48
1774413722.294917,45
1774413722.3113062,43
1774413722.3250372,42
1774413722.3432562,43
1774413722.3642154,44
1774413722.3748097,45
1774413722.39344,46
1774413722.407808,45
1774413722.4308906,44
1774413722.440782,42
1774413722.4626784,40
1774413722.4818492,37
1774413722.4944496,34
1774413722.5105083,32
1774413722.5264046,30
1774413722.542486,28
1774413722.5586185,27
1774413722.574493,26
1774413722.601273,25
1774413722.6151092,25
1774413722.624754,25
1774413722.6459491,26
1774413722.6597118,26
1774413722.6753044,26
1774413722.694352,27
1774413722.7111099,27
1774413722.7264938,27
1774413722.7433453,28
1774413722.7608922,31
1774413722.775812,38
1774413722.7921085,47
1774413722.8081596,59
1774413722.8263543,71
1774413722.8435931,83
1774413722.861967,91
1774413722.8742037,94
1774413722.8937495,93
1774413722.9101682,88
1774413722.9380229,82
1774413722.9420931,75
1774413722.957926,68
1774413722.9888523,61
1774413722.9950135,56
1774413723.0086606,52
1774413723.0380862,49
1774413723.0416164,47
1774413723.0590308,47
1774413723.075507,48
1774413723.0911222,49
1774413723.111076,50
1774413723.129725,51
1774413723.1416569,51
1774413723.1577632,50
1774413723.1795573,47
1774413723.191085,44
1774413723.2094114,41
1774413723.2244015,38
1774413723.2407467,36
1774413723.2583106,33
1774413723.2743597,31
1774413723.2942207,29
1774413723.3099747,27
1774413723.3263843,26
1774413723.3454492,25
1774413723.3580337,24
1774413723.3832135,23
1774413723.3998902,23
1774413723.409159,22
1774413723.4272625,21
1774413723.4479692,21
1774413723.4607427,23
1774413723.4810374,27
1774413723.4958212,35
1774413723.5110924,44
1774413723.5248177,56
1774413723.5434463,68
1774413723.5577188,77
1774413723.5753613,83
1774413723.5912886,84
1774413723.6099002,81
1774413723.6293464,75
1774413723.6407177,67
1774413723.6601355,59
1774413723.6772242,51
1774413723.6934977,44
1774413723.7121508,39
1774413723.7253997,35
1774413723.7414718,32
1774413723.757749,31
1774413723.7836864,31
1774413723.7925618,32
1774413723.8141394,33
1774413723.832287,34
1774413723.8418434,34
1774413723.8612356,33
1774413723.8777812,31
1774413723.8929062,28
1774413723.9113173,25
1774413723.92578,22
1774413723.942587,19
1774413723.9577026,17
1774413723.9800925,15
1774413723.99593,13
1774413724.0076685,12
1774413724.0328221,12
1774413724.0407138,12
1774413724.0578458,12
1774413724.074648,13
1774413724.0965102,13
1774413724.1080701,14
1774413724.124649,14
1774413724.1502817,14
1774413724.1578088,15
1774413724.1744738,17
1774413724.2020266,22
1774413724.20758,30
1774413724.2358713,41
1774413724.248218,55
1774413724.2610054,68
1774413724.2792542,80
1774413724.292837,88
1774413724.311538,90
1774413724.3246717,88
1774413724.3448222,82
1774413724.3578117,75
1774413724.3756218,67
1774413724.3945844,60
1774413724.4074545,53
1774413724.4276028,48
1774413724.4435127,44
1774413724.4578335,40
1774413724.4749434,39
1774413724.4907944,38
1774413724.518181,38
1774413724.5248973,39
1774413724.5418563,40
1774413724.5612826,40
1774413724.583158,40
1774413724.5917182,39
1774413724.6141207,37
1774413724.6240683,34
1774413724.6477733,31
1774413724.662382,27
1774413724.681523,24
1774413724.691311,22
1774413724.712304,20
1774413724.7276487,18
1774413724.7461386,17
1774413724.7620068,16
1774413724.7761993,16
1774413724.794178,15
1774413724.8100927,16
1774413724.8260155,16
1774413724.8422055,17
1774413724.858043,17
1774413724.874374,18
1774413724.8985498,18
1774413724.9077613,19
1774413724.9247563,21
1774413724.9531293,27
1774413724.957748,36
1774413724.9747999,47
1774413724.9912024,60
1774413725.01543,74
1774413725.028022,85
1774413725.0409248,91
1774413725.0576305,93
1774413725.0749583,91
1774413725.0917795,85
1774413725.1103678,77
1774413725.1277113,69
1774413725.1438901,62
1774413725.1576984,56
1774413725.1759133,50
1774413725.1908317,46
1774413725.2086205,42
1774413725.2245378,40
1774413725.241184,40
1774413725.2575088,40
1774413725.280355,40
1774413725.299963,41
1774413725.3157496,41
1774413725.3348265,40
1774413725.3500068,40
1774413725.3576925,37
1774413725.3818293,34
1774413725.3910723,30
1774413725.4147694,27
1774413725.4290488,23
1774413725.4485295,21
1774413725.4584866,18
1774413725.4784448,16
1774413725.4942865,15
1774413725.5101435,15
1774413725.525862,14
1774413725.541984,14
1774413725.565135,14
1774413725.573983,14
1774413725.591157,15
1774413725.6219625,15
1774413725.624432,15
1774413725.6522453,15
1774413725.6637738,16
1774413725.6754043,18
1774413725.6906896,23
1774413725.7083538,31
1774413725.733361,41
1774413725.7494504,53
1774413725.7578413,66
1774413725.7767503,77
1774413725.7911406,84
1774413725.8116703,86
1774413725.824106,83
1774413725.8407576,77
1774413725.8578272,69
1774413725.8776674,61
1774413725.8935132,53
1774413725.9094906,46
1774413725.927857,40
1774413725.9454982,36
1774413725.957527,33
1774413725.9755282,30
1774413725.9910066,29
1774413726.0230236,30
1774413726.023869,31
1774413726.041297,32
1774413726.058203,33
1774413726.074596,33
1774413726.093552,32
1774413726.1163788,30
1774413726.1239355,28
1774413726.143716,25
1774413726.1577592,22
1774413726.180637,20
1774413726.196437,18
1774413726.211976,16
1774413726.2317357,15
1774413726.2444239,15
1774413726.258597,14
1774413726.2813802,14
1774413726.2960796,15
1774413726.3087075,16
1774413726.3263776,16
1774413726.348132,17
1774413726.3614292,18
1774413726.387381,19
1774413726.3914888,20
1774413726.40767,20
1774413726.4238696,23
1774413726.4424336,28
1774413726.4646137,37
1774413726.4790936,49
1774413726.4937553,64
1774413726.5146368,80
1774413726.5302474,93
1774413726.5452452,101
1774413726.5581043,104
1774413726.5783389,101
1774413726.5915186,95
1774413726.6102107,87
1774413726.6244552,78
1774413726.6488237,70
1774413726.657762,63
1774413726.6766007,56
1774413726.6986406,51
1774413726.7113035,48
1774413726.7319343,46
1774413726.7468657,45
1774413726.7591705,46
1774413726.785465,48
1774413726.7919025,50
1774413726.8095956,51
1774413726.8238719,51
1774413726.846715,50
1774413726.857167,48
1774413726.8797705,45
1774413726.891535,41
1774413726.9091985,38
1774413726.9272048,34
1774413726.943011,31
1774413726.9639711,29
1774413726.9826336,27
1774413726.9911373,25
1774413727.016106,24
1774413727.0243926,23
1774413727.0406144,23
1774413727.0574765,23
1774413727.075285,23
1774413727.0951052,23
1774413727.1152103,23
1774413727.129678,24
1774413727.1464496,27
1774413727.1591263,34
1774413727.1759405,42
1774413727.1960454,54
1774413727.2078831,67
1774413727.2238228,79
1774413727.2439752,87
1774413727.258334,90
1774413727.278938,88
1774413727.292021,82
1774413727.3117392,74
1774413727.325982,65
1774413727.3430774,56
1774413727.3589444,47
1774413727.381299,40
1774413727.3905444,34
1774413727.407747,30
1774413727.4249692,28
1774413727.441797,28
1774413727.4589744,29
1774413727.4794967,32
1774413727.502422,34
1774413727.5117388,35
1774413727.5268536,35
1774413727.54194,34
1774413727.5606482,31
1774413727.5749276,28
1774413727.5956833,24
1774413727.6072202,20
1774413727.6237783,16
1774413727.6472847,13
1774413727.6581843,11
1774413727.6773958,9
1774413727.6934226,8
1774413727.7105691,7
1774413727.725794,6
1774413727.7456872,6
1774413727.7578156,6
1774413727.784207,6
1774413727.7911246,7
1774413727.8087375,8
1774413727.8259742,11
1774413727.8414705,18
1774413727.862701,29
1774413727.885611,41
1774413727.8951774,57
1774413727.9095526,72
1774413727.929159,85
1774413727.9475691,92
1774413727.9602318,94
1774413727.9814177,90
1774413727.9911351,84
1774413728.0090742,75
1774413728.0238092,67
1774413728.041636,58
1774413728.0576603,51
1774413728.075852,45
1774413728.105445,41
1774413728.1079395,39
1774413728.1254888,37
1774413728.1538785,37
1774413728.1578014,38
1774413728.179436,40
1774413728.1911786,40
1774413728.2152395,41
1774413728.2258804,41
1774413728.253528,40
1774413728.261718,37
1774413728.2748868,34
1774413728.296235,30
1774413728.3151493,26
1774413728.3244808,23
1774413728.3421304,21
1774413728.360681,19
1774413728.3747191,17
1774413728.3930235,16
1774413728.412556,15
1774413728.4245179,15
1774413728.4445415,13
1774413728.4578538,13
1774413728.4764595,14
1774413728.4904127,14
1774413728.5084507,15
1774413728.5248752,17
1774413728.5476444,22
1774413728.564242,32
1774413728.588374,44
1774413728.591253,59
1774413728.6081414,74
1774413728.6280336,88
1774413728.645626,97
1774413728.6629982,99
1774413728.676903,97
1774413728.6964085,91
1774413728.7082837,83
1774413728.7280035,75
1774413728.745633,66
1774413728.7590916,59
1774413728.7788231,52
1774413728.7934523,47
1774413728.810707,44
1774413728.823765,41
1774413728.8427546,40
1774413728.858835,41
1774413728.8750455,42
1774413728.891346,43
1774413728.9072003,43
1774413728.9245968,43
1774413728.944797,42
1774413728.9581153,40
1774413728.9839847,37
1774413728.9908938,33
1774413729.0154064,29
1774413729.0296042,25
1774413729.0408175,23
1774413729.0589406,20
1774413729.0817926,18
1774413729.0950656,17
1774413729.1124978,16
1774413729.1267407,16
1774413729.1417751,15
1774413729.1585574,15
1774413729.1796567,15
1774413729.191574,16
1774413729.2117846,17
1774413729.2236838,19
1774413729.241316,25
1774413729.2571528,35
1774413729.2754781,48
1774413729.2959783,62
1774413729.3174887,77
1774413729.3249445,90
1774413729.3488834,97
1774413729.363744,99
1774413729.3838909,96
1774413729.3995543,89
1774413729.407514,81
1774413729.4314585,72
1774413729.4438558,63
1774413729.463281,56
1774413729.4775133,50
1774413729.4923759,45
1774413729.5116365,42
1774413729.5269961,40
1774413729.5435634,40
1774413729.5596838,40
1774413729.5756776,41
1774413729.5912771,42
1774413729.6077383,42
1774413729.6237514,42
1774413729.6408467,40
1774413729.6657143,38
1774413729.6800177,34
1774413729.6963024,30
1774413729.7088559,27
1774413729.725472,24
1774413729.745339,21
1774413729.7580905,19
1774413729.779344,18
1774413729.7913957,17
1774413729.8075633,17
1774413729.831161,16
1774413729.8431044,17
1774413729.8635247,17
1774413729.8740592,17
1774413729.8949516,18
1774413729.9102023,19
1774413729.9272072,21
1774413729.9487212,26
1774413729.9669561,35
1774413729.9780343,46
1774413729.9928489,60
1774413730.008808,76
1774413730.023694,89
1774413730.040691,99
1774413730.0574374,104
1774413730.0772219,102
1774413730.0916204,97
1774413730.1175854,89
1774413730.1236804,80
1774413730.142597,71
1774413730.165402,63
1774413730.180081,56
1774413730.19457,51
1774413730.213375,47
1774413730.2295303,44
1774413730.2414622,43
1774413730.265497,44
1774413730.2774696,45
1774413730.2953613,47
1774413730.3078482,48
1774413730.3270295,48
1774413730.341424,46
1774413730.3575091,44
1774413730.37391,41
1774413730.391095,38
1774413730.4081833,34
1774413730.423669,31
1774413730.4488418,28
1774413730.469324,25
1774413730.479437,24
1774413730.5013194,22
1774413730.5095184,22
1774413730.5248392,21
1774413730.5418568,21
1774413730.5648913,21
1774413730.579146,21
1774413730.59691,22
1774413730.6128356,22
1774413730.6283445,23
1774413730.6449063,26
1774413730.6608794,33
1774413730.674642,42
1774413730.6906462,54
1774413730.707924,69
1774413730.734057,83
1774413730.7442553,93
1774413730.7629776,98
1774413730.7738736,98
1774413730.7936265,93
1774413730.8089845,84
1774413730.8281915,75
1774413730.8416204,65
1774413730.859906,56
1774413730.8748286,48
1774413730.896306,41
1774413730.9078755,38
1774413730.932459,35
1774413730.948415,34
1774413730.9641294,35
1774413730.9796288,37
1774413730.9963384,38
1774413731.0123146,39
1774413731.0282876,39
1774413731.0419097,38
1774413731.0584269,35
1774413731.074164,31
1774413731.0960798,27
1774413731.1133125,23
1774413731.1242304,19
1774413731.149138,16
1774413731.1632538,14
1774413731.1826096,14
1774413731.1918879,12
1774413731.2116833,11
1774413731.2242918,11
1774413731.241036,11
1774413731.259478,11
1774413731.281939,9
1774413731.296825,9
1774413731.313935,9
1774413731.3300269,11
1774413731.3461442,15
1774413731.3684583,24
1774413731.374662,36
1774413731.3978026,50
1774413731.410412,66
1774413731.4297693,81
1774413731.442646,92
1774413731.4571364,97
1774413731.4764354,97
1774413731.4951093,92
1774413731.5209367,84
1774413731.5332587,75
1774413731.5452132,65
1774413731.559279,57
1774413731.5780025,50
1774413731.591396,44
1774413731.6121886,40
1774413731.623564,38
1774413731.648918,36
1774413731.6568942,37
1774413731.6748412,38
1774413731.6940358,40
1774413731.7097573,40
1774413731.7350214,40
1774413731.741018,40
1774413731.760299,38
1774413731.775355,34
1774413731.7918649,30
1774413731.8104553,26
1774413731.8309796,23
1774413731.8411295,19
1774413731.8608794,17
1774413731.8747385,15
1774413731.897933,13
1774413731.90907,12
1774413731.9277492,12
1774413731.940576,12
1774413731.9582913,12
1774413731.9761322,12
1774413731.9917274,12
1774413732.0081003,12
1774413732.0236275,13
1774413732.0409472,13
1774413732.0576942,15
1774413732.0786793,21
1774413732.0942857,31
1774413732.109666,45
1774413732.1252253,61
1774413732.1413386,77
1774413732.158445,91
1774413732.1745825,100
1774413732.1967974,103
1774413732.2075474,101
1774413732.2310655,94
1774413732.2411463,62
1774413732.2626736,57
1774413732.2755947,53
1774413732.2970622,49
1774413732.3104732,45
1774413732.3276572,43
1774413732.341188,41
1774413732.3620627,40
1774413732.3805847,40
1774413732.392881,40
1774413732.4077938,40
1774413732.4235556,41
1774413732.4415884,41
1774413732.4605043,40
1774413732.4744847,40
1774413732.4912422,39
1774413732.5075998,37
1774413732.5244005,35
1774413732.541576,33
1774413732.5662699,31
1774413732.5743077,29
1774413732.5965595,28
1774413732.6144423,27
1774413732.63275,27
1774413732.6403654,27
1774413732.6630454,27
1774413732.6822462,27
1774413732.6955144,27
1774413732.7071137,27
1774413732.7266345,27
1774413732.7462766,27
1774413732.758194,27
1774413732.7782278,27
1774413732.793522,27
1774413732.81079,28
1774413732.8264518,32
1774413732.8402069,37
1774413732.8584685,43
1774413732.8744192,51
1774413732.8904612,60
1774413732.907237,66
1774413732.9244795,71
1774413732.9419088,72
1774413732.970193,70
1774413732.9770427,66
1774413732.9990492,61
1774413733.0119574,56
1774413733.0307872,52
1774413733.0409613,47
1774413733.0591023,44
1774413733.0811024,42
1774413733.0972526,40
1774413733.1131327,40
1774413733.1276608,39
1774413733.141033,40
1774413733.160583,40
1774413733.1780357,40
1774413733.1931715,40
1774413733.2075274,40
1774413733.2250829,40
1774413733.2411437,38
1774413733.2614732,36
1774413733.2735388,34
1774413733.2952101,32
1774413733.3196464,30
1774413733.3288043,29
1774413733.3409307,28
1774413733.3577747,27
1774413733.3779387,26
1774413733.4002373,26
1774413733.4124997,26
1774413733.432236,26
1774413733.4448903,26
1774413733.4643967,26
1774413733.477613,26
1774413733.4953384,27
1774413733.50869,27
1774413733.5312366,27
1774413733.5422728,27
1774413733.5690238,27
1774413733.5747726,30
1774413733.590824,34
1774413733.6070356,40
1774413733.62956,48
1774413733.6406603,57
1774413733.6708076,65
1774413733.6736538,71
1774413733.7028346,73
1774413733.7072525,73
1774413733.7334638,70
1774413733.74652,65
1774413733.7690494,60
1774413733.7829049,55
1774413733.7988725,50
1774413733.8105927,46
1774413733.8311872,43
1774413733.8422062,41
1774413733.861802,40
1774413733.875345,40
1774413733.894113,40
1774413733.907824,40
1774413733.9258523,41
1774413733.9409804,41
1774413733.9578207,42
1774413733.9739027,41
1774413733.9911556,40
1774413734.008244,40
1774413734.0248358,38
1774413734.0401762,36
1774413734.0576303,35
1774413734.0736368,33
1774413734.0920613,32
1774413734.1160417,31
1774413734.124505,31
1774413734.1429627,30
1774413734.163072,30
1774413734.1743207,30
1774413734.196014,31
1774413734.2211602,31
1774413734.227056,31
1774413734.2430265,31
1774413734.2602496,32
1774413734.274384,32
1774413734.2907104,32
1774413734.3092794,32
1774413734.337589,33
1774413734.3448315,36
1774413734.357812,40
1774413734.375764,47
1774413734.4006822,55
1774413734.4137688,64
1774413734.4244444,71
1774413734.4496799,75
1774413734.457707,76
1774413734.4815342,74
1774413734.4933732,70
1774413734.5068746,66
1774413734.5292826,60
1774413734.5455706,55
1774413734.5616605,51
1774413734.5738554,47
1774413734.5937126,44
1774413734.6089623,42
1774413734.6268024,41
1774413734.6410956,41
1774413734.6576247,42
1774413734.6738644,44
1774413734.691554,45
1774413734.7131064,46
1774413734.7319515,46
1774413734.7423954,45
1774413734.7627976,43
1774413734.7756522,41
1774413734.7915664,39
1774413734.8073611,37
1774413734.828457,34
1774413734.8400903,33
1774413734.8580072,31
1774413734.874466,30
1774413734.896486,29
1774413734.906852,29
1774413734.9235106,28
1774413734.9433904,28
1774413734.9664307,28
1774413734.9765189,28
