timestamp,bvp
1774408088.7191293,76
1774408088.7358165,75
1774408088.7524505,73
1774408088.769103,71
1774408088.7858002,68
1774408088.802446,65
1774408088.8190846,61
1774408088.8357713,57
1774408088.85241,53
1774408088.8692293,50
1774408088.88585,48
1774408088.9024305,47
1774408088.9190726,45
1774408088.9357488,44
1774408088.9527361,43
1774408088.9696836,42
1774408088.9861612,40
1774408089.0026252,40
1774408089.0195549,38
1774408089.0362203,36
1774408089.053633,34
1774408089.0695739,32
1774408089.0861254,31
1774408089.102815,30
1774408089.1192493,28
1774408089.136167,27
1774408089.1531758,27
1774408089.1694,26
1774408089.1861923,25
1774408089.2032983,25
1774408089.2202704,24
1774408089.2365053,24
1774408089.253595,23
1774408089.2691383,23
1774408089.2863798,22
1774408089.302538,22
1774408089.3194473,22
1774408089.3359253,24
1774408089.3530462,28
1774408089.3695786,34
1774408089.3861384,42
1774408089.403061,52
1774408089.4203293,62
1774408089.4362829,70
1774408089.4547172,76
1774408089.4705567,79
1774408089.4869504,80
1774408089.5030112,80
1774408089.5192938,79
1774408089.5367799,78
1774408089.5525923,77
1774408089.5709965,75
1774408089.586905,72
1774408089.6031866,69
1774408089.6199336,65
1774408089.6364615,62
1774408089.6532032,57
1774408089.6692207,54
1774408089.6876907,51
1774408089.7024665,48
1774408089.7193227,47
1774408089.7360256,45
1774408089.7528498,44
1774408089.7696218,43
1774408089.786,42
1774408089.8032181,40
1774408089.8191164,39
1774408089.8366833,37
1774408089.8533134,35
1774408089.8697014,33
1774408089.8870926,32
1774408089.9026263,30
1774408089.9195647,29
1774408089.9363632,27
1774408089.953027,26
1774408089.969592,26
1774408089.9861596,25
1774408090.002702,24
1774408090.0192564,24
1774408090.0361297,23
1774408090.0562582,23
1774408090.0690217,22
1774408090.089275,22
1774408090.105256,21
1774408090.1214058,21
1774408090.1392746,20
1774408090.153373,20
1774408090.1741378,20
1774408090.1856818,19
1774408090.2112396,19
1774408090.226963,19
1774408090.2392392,18
1774408090.2589905,19
1774408090.2783942,20
1774408090.2876713,24
1774408090.3035479,30
1774408090.324793,39
1774408090.3390725,49
1774408090.3550403,59
1774408090.372014,69
1774408090.3858256,76
1774408090.405338,80
1774408090.4315255,81
1774408090.4409,81
1774408090.4601986,80
1774408090.4690506,78
1774408090.4878092,76
1774408090.5148482,74
1774408090.5200124,71
1774408090.5414155,68
1774408090.5655222,65
1774408090.580661,61
1774408090.586585,57
1774408090.606976,54
1774408090.6206872,51
1774408090.6461022,48
1774408090.6630008,47
1774408090.6778219,46
1774408090.6945965,45
1774408090.7085912,44
1774408090.7279015,43
1774408090.7425485,41
1774408090.7663627,40
1774408090.7740352,38
1774408090.7936387,37
1774408090.8048341,35
1774408090.823616,33
1774408090.8368804,32
1774408090.8578637,30
1774408090.8709908,29
1774408090.8870256,28
1774408090.903038,26
1774408090.9268389,26
1774408090.9371936,25
1774408090.962453,24
1774408090.9818938,23
1774408090.9979627,22
1774408091.010914,21
1774408091.0281584,20
1774408091.0459352,19
1774408091.061902,18
1774408091.0770595,17
1774408091.0939386,17
1774408091.1062322,16
1774408091.1289055,16
1774408091.141008,15
1774408091.1572495,15
1774408091.1728597,14
1774408091.1893718,14
1774408091.204042,14
1774408091.233093,17
1774408091.2385228,22
1774408091.2563996,29
1774408091.274291,38
1774408091.2891016,47
1774408091.3024788,56
1774408091.3198354,63
1774408091.3391173,68
1774408091.3647785,70
1774408091.3755867,69
1774408091.3960562,68
1774408091.4035468,66
1774408091.4262607,64
1774408091.444513,61
1774408091.4605567,59
1774408091.476737,56
1774408091.4911926,53
1774408091.5087667,50
1774408091.5246327,48
1774408091.5402203,45
1774408091.5565739,43
1774408091.5727932,42
1774408091.5887117,42
1774408091.6055264,41
1774408091.6206799,41
1774408091.6365573,40
1774408091.668243,40
1774408091.669098,39
1774408091.6934845,38
1774408091.7029874,36
1774408091.7254477,34
1774408091.7471786,33
1774408091.7631128,31
1774408091.7805512,30
1774408091.7856362,29
1774408091.8114069,28
1774408091.8279085,27
1774408091.8419154,26
1774408091.8561192,25
1774408091.8752105,24
1774408091.8912282,24
1774408091.913931,23
1774408091.9204054,22
1774408091.940864,22
1774408091.9523268,21
1774408091.971231,20
1774408091.9865682,20
1774408092.004929,19
1774408092.0192096,19
1774408092.0369887,18
1774408092.057716,18
1774408092.0759323,18
1774408092.0856035,18
1774408092.1148365,17
1774408092.1218276,17
1774408092.1388583,16
1774408092.1631155,17
1774408092.1702151,19
1774408092.195179,25
1774408092.2130158,33
1774408092.2313066,42
1774408092.2419393,54
1774408092.2576225,65
1774408092.2736764,74
1774408092.290036,80
1774408092.303368,83
1774408092.3199837,84
1774408092.338744,84
1774408092.3671477,82
1774408092.377638,80
1774408092.4006097,79
1774408092.4067163,76
1774408092.4326134,74
1774408092.445406,71
1774408092.4570708,67
1774408092.4770265,63
1774408092.4867706,59
1774408092.512827,56
1774408092.5276818,53
1774408092.5437737,51
1774408092.5598748,49
1774408092.5765965,48
1774408092.591759,47
1774408092.606718,46
1774408092.6305318,45
1774408092.6382482,44
1774408092.654868,42
1774408092.670954,40
1774408092.6895268,39
1774408092.7124312,37
1774408092.7214108,35
1774408092.7355874,33
1774408092.765665,32
1774408092.773553,31
1774408092.7932057,30
1774408092.80534,29
1774408092.8244083,28
1774408092.8439069,27
1774408092.8540025,26
1774408092.880863,26
1774408092.8857355,25
1774408092.908288,24
1774408092.9278176,23
1774408092.9369235,23
1774408092.9668653,22
1774408092.974702,21
1774408092.9914033,21
1774408093.0039933,20
1774408093.0266998,20
1774408093.0380514,19
1774408093.063664,19
1774408093.073344,18
1774408093.097917,18
1774408093.1125927,18
1774408093.1294405,17
1774408093.1406305,17
1774408093.1634889,17
1774408093.1765845,17
1774408093.1934948,17
1774408093.2114532,16
1774408093.2203572,16
1774408093.2436218,16
1774408093.2580283,18
1774408093.2805004,22
1774408093.2909143,30
1774408093.3037138,40
1774408093.3193808,52
1774408093.3360026,65
1774408093.3564734,76
1774408093.3715954,85
1774408093.3868392,90
1774408093.4056087,92
1774408093.4200366,92
1774408093.4458177,91
1774408093.462414,90
1774408093.468895,88
1774408093.494329,86
1774408093.5148804,84
1774408093.5316565,81
1774408093.5407877,78
1774408093.5664568,74
1774408093.5708814,70
1774408093.5887544,66
1774408093.6115663,62
1774408093.6220224,59
1774408093.6452506,56
1774408093.655924,54
1774408093.676726,53
1774408093.685503,52
1774408093.7074988,51
1774408093.722246,49
1774408093.7366254,48
1774408093.7555945,46
1774408093.7770627,44
1774408093.798483,42
1774408093.803086,40
1774408093.819245,39
1774408093.8393571,37
1774408093.8654106,35
1774408093.8788347,34
1774408093.8970068,32
1774408093.9042597,31
1774408093.9268913,30
1774408093.945259,29
1774408093.953676,28
1774408093.9843721,28
1774408093.9887686,27
1774408094.0021834,26
1774408094.0267668,25
1774408094.0426233,24
1774408094.0541975,23
1774408094.0746546,23
1774408094.0899653,22
1774408094.1085317,21
1774408094.1235986,21
1774408094.1376622,20
1774408094.166431,19
1774408094.1748586,19
1774408094.1882036,18
1774408094.2070954,17
1774408094.2335963,17
1774408094.246602,16
1774408094.2598243,16
1774408094.2816522,16
1774408094.2865682,16
1774408094.3033676,15
1774408094.3215163,15
1774408094.3457537,15
1774408094.3583899,14
1774408094.3772924,15
1774408094.3854413,19
1774408094.4163072,26
1774408094.4258647,36
1774408094.4466698,47
1774408094.457038,59
1774408094.4737198,71
1774408094.4866,80
1774408094.5044188,86
1774408094.5285149,89
1774408094.5537968,90
1774408094.554037,89
1774408094.580718,87
1774408094.5863187,84
1774408094.612582,82
1774408094.6282237,80
1774408094.6468349,77
1774408094.6620758,74
1774408094.676712,71
1774408094.686864,67
1774408094.7086627,63
1774408094.729724,59
1774408094.743444,56
1774408094.759498,54
1774408094.7760494,52
1774408094.78866,51
1774408094.8132284,50
1774408094.8206923,49
1774408094.8372145,48
1774408094.8553817,46
1774408094.8864791,44
1774408094.8865657,41
1774408094.904935,40
1774408094.920848,38
1774408094.9374268,36
1774408094.9531333,34
1774408094.9790137,32
1774408094.986146,31
1774408095.0066767,29
1774408095.0271053,28
1774408095.0434957,27
1774408095.0565903,26
1774408095.0813766,25
1774408095.0923345,24
1774408095.1084888,23
1774408095.1199954,23
1774408095.145027,22
1774408095.1580257,21
1774408095.1767182,20
1774408095.1885877,20
1774408095.2023938,19
1774408095.2207882,18
1774408095.2407284,18
1774408095.253011,17
1774408095.276709,17
1774408095.2854002,16
1774408095.3041935,16
1774408095.3195033,16
1774408095.3370364,16
1774408095.355364,16
1774408095.3713372,15
1774408095.3933618,15
1774408095.4202414,15
1774408095.4212177,17
1774408095.4458504,22
1774408095.4643977,29
1774408095.4806952,40
1774408095.4929786,51
1774408095.512302,63
1774408095.5299616,74
1774408095.5442219,83
1774408095.5583348,87
1774408095.5689223,89
1774408095.5966365,89
1774408095.6082382,87
1774408095.6207767,85
1774408095.6402395,83
1774408095.652761,81
1774408095.6736767,78
1774408095.6853848,75
1774408095.704312,71
1774408095.7205584,67
1774408095.737974,63
1774408095.75206,60
1774408095.771691,56
1774408095.7952223,54
1774408095.815142,52
1774408095.8296897,51
1774408095.8479598,50
1774408095.8639605,49
1774408095.876699,48
1774408095.8891702,47
1774408095.9027557,45
1774408095.9249105,43
1774408095.9378972,41
1774408095.9566472,40
1774408095.9886806,38
1774408095.9888966,36
1774408096.0156856,34
1774408096.0308905,33
1774408096.0559115,31
1774408096.0560372,30
1774408096.0708873,29
1774408096.0853937,28
1774408096.1021657,28
1774408096.1204662,27
1774408096.1411242,26
1774408096.155772,26
1774408096.1821487,25
1774408096.1932147,24
1774408096.2066593,24
1774408096.230759,23
1774408096.24915,22
1774408096.2609758,21
1774408096.2774017,21
1774408096.286153,20
1774408096.3051305,19
1774408096.3238711,19
1774408096.341059,18
1774408096.356691,18
1774408096.3743615,18
1774408096.386794,17
1774408096.4062567,17
1774408096.4225402,17
1774408096.4394639,17
1774408096.454889,16
1774408096.4783459,16
1774408096.4855402,18
1774408096.5023282,22
1774408096.525915,29
1774408096.5386884,40
1774408096.5635748,51
1774408096.5808294,65
1774408096.5921197,78
1774408096.613771,88
1774408096.62985,95
1774408096.6456804,98
1774408096.6620643,99
1774408096.6710606,98
1774408096.6964967,96
1774408096.7064672,93
1774408096.7247705,91
1774408096.742316,88
1774408096.756737,85
1774408096.772669,82
1774408096.788993,59
1774408096.8045578,57
1774408096.820803,55
1774408096.8368535,53
1774408096.8527045,51
1774408096.8719296,49
1774408096.8853006,48
1774408096.9020257,48
1774408096.927388,47
1774408096.944582,46
1774408096.9646246,46
1774408096.9798403,45
1774408096.9880297,44
1774408097.0126219,43
1774408097.028554,42
1774408097.0447388,41
1774408097.054864,40
1774408097.075573,40
1774408097.0912638,39
1774408097.1089253,38
1774408097.1244807,37
1774408097.135362,37
1774408097.1556957,36
1774408097.1717837,36
1774408097.1876767,35
1774408097.2037473,35
1774408097.2206702,34
1774408097.245205,34
1774408097.258204,34
1774408097.2725475,33
1774408097.2852833,33
1774408097.3038325,32
1774408097.330684,32
1774408097.346619,31
1774408097.3571706,31
1774408097.3734999,30
1774408097.3946342,30
1774408097.410717,30
1774408097.4266632,29
1774408097.4367487,29
1774408097.4606478,29
1774408097.4733586,29
1774408097.486555,28
1774408097.5057094,28
1774408097.5208292,28
1774408097.5371752,28
1774408097.5559242,27
1774408097.5776143,28
1774408097.594593,29
1774408097.609576,32
1774408097.6207092,37
1774408097.646618,42
1774408097.6528833,48
1774408097.6777477,55
1774408097.6865113,60
1774408097.706337,63
1774408097.7190678,65
1774408097.7417645,65
1774408097.7589839,65
1774408097.7762735,63
1774408097.7916133,62
1774408097.8077693,61
1774408097.8308942,59
1774408097.844973,58
1774408097.867247,56
1774408097.8716207,54
1774408097.8956742,53
1774408097.916602,51
1774408097.9199557,49
1774408097.938911,47
1774408097.9563277,46
1774408097.978436,46
1774408097.988669,45
1774408098.0120368,45
1774408098.0246558,45
1774408098.0503123,44
1774408098.059363,43
1774408098.0757153,42
1774408098.0853615,41
1774408098.1083932,40
1774408098.122558,39
1774408098.1440153,38
1774408098.1561348,37
1774408098.1757464,36
1774408098.186568,36
1774408098.2088587,35
1774408098.2237434,34
1774408098.240587,34
1774408098.2536354,33
1774408098.276499,33
1774408098.2885585,33
1774408098.30362,32
1774408098.3249109,32
1774408098.3393843,32
1774408098.3569653,31
1774408098.3824897,31
1774408098.3888638,31
1774408098.4131923,30
1774408098.4208732,30
1774408098.4456048,30
1774408098.4539986,30
1774408098.4838324,30
1774408098.4852011,29
1774408098.5087028,29
1774408098.5286264,29
1774408098.536509,29
1774408098.5611145,31
1774408098.570579,34
1774408098.59615,38
1774408098.609667,43
1774408098.6198084,50
1774408098.6352158,56
1774408098.6544435,61
1774408098.6770997,65
1774408098.6957297,67
1774408098.7217512,67
1774408098.7267845,66
1774408098.7352757,65
1774408098.7568164,64
1774408098.7686522,63
1774408098.7896252,62
1774408098.8118825,60
1774408098.8251212,59
1774408098.8438761,57
1774408098.8526838,55
1774408098.8757832,53
1774408098.8859212,51
1774408098.90402,49
1774408098.9245245,48
1774408098.9354703,47
1774408098.9557555,46
1774408098.9764903,45
1774408098.985713,45
1774408099.0037668,44
1774408099.0253136,43
1774408099.051537,42
1774408099.0639098,41
1774408099.0723932,40
1774408099.091891,40
1774408099.1157463,39
1774408099.1280093,38
1774408099.1467307,37
1774408099.1594133,36
1774408099.1790903,36
1774408099.1886532,35
1774408099.2022822,35
1774408099.220704,35
1774408099.2427433,34
1774408099.2543228,34
1774408099.2692893,33
1774408099.2899253,33
1774408099.3028595,33
1774408099.3195992,33
1774408099.3390853,32
1774408099.3536174,32
1774408099.3692489,32
1774408099.3910034,32
1774408099.4073372,31
1774408099.4288232,31
1774408099.447089,31
1774408099.4584808,31
1774408099.4801054,31
1774408099.497425,31
1774408099.510806,31
1774408099.5287125,31
1774408099.5422382,34
1774408099.5568342,37
1774408099.5758061,42
1774408099.5931542,48
1774408099.6137767,55
1774408099.6226046,61
1774408099.6394994,66
1774408099.6665268,68
1774408099.6692317,70
1774408099.6889286,70
1774408099.7018092,69
1774408099.7189217,68
1774408099.7371793,67
1774408099.7533784,65
1774408099.7684777,64
1774408099.79615,63
1774408099.8024247,61
1774408099.83306,59
1774408099.8386798,57
1774408099.853435,54
1774408099.8842733,52
1774408099.88522,50
1774408099.9077718,49
1774408099.9265997,48
1774408099.9440627,47
1774408099.9603927,47
1774408099.9865916,46
1774408099.9924598,45
1774408100.0086386,45
1774408100.0354862,44
1774408100.0368972,42
1774408100.054258,41
1774408100.0689542,40
1774408100.094922,40
1774408100.1030922,39
1774408100.1326377,39
1774408100.135786,38
1774408100.1641743,37
1774408100.1886423,37
1774408100.199502,36
1774408100.2116752,36
1774408100.2281606,35
1774408100.2358234,35
1774408100.255528,34
1774408100.2761774,34
1774408100.2856474,33
1774408100.3020942,33
1774408100.3249776,32
1774408100.3435607,31
1774408100.3569896,31
1774408100.375528,30
1774408100.3915946,30
1774408100.4029312,30
1774408100.4236164,29
1774408100.4365678,29
1774408100.4556224,29
1774408100.4718378,28
1774408100.488598,28
1774408100.5037436,28
1774408100.520144,28
1774408100.5360146,30
1774408100.5518227,34
1774408100.5820606,39
1774408100.5947776,43
1774408100.6148841,49
1774408100.631047,54
1774408100.6467319,58
1774408100.6547532,60
1774408100.6775227,61
1774408100.692585,60
1774408100.7027917,59
1774408100.7258723,58
1774408100.741856,57
1774408100.7572405,55
1774408100.7840767,54
1774408100.7899268,52
1774408100.8058543,50
1774408100.826709,49
1774408100.8371449,47
1774408100.863663,45
1774408100.8700526,44
1774408100.886188,44
1774408100.9044962,43
1774408100.9299703,43
1774408100.9435108,43
1774408100.9537833,43
1774408100.9688761,42
1774408100.9959996,41
1774408101.0078654,40
1774408101.028024,40
1774408101.0442624,39
1774408101.058215,38
1774408101.0746357,37
1774408101.0919843,37
1774408101.1018717,36
1774408101.1240373,35
1774408101.1406505,35
1774408101.1616993,34
1774408101.181361,34
1774408101.1879761,34
1774408101.2047062,34
1774408101.2248178,33
1774408101.236202,33
1774408101.2521894,33
1774408101.2690709,33
1774408101.2851539,32
1774408101.3018253,32
1774408101.3209202,32
1774408101.338101,32
1774408101.358817,31
1774408101.3786416,31
1774408101.3944979,31
1774408101.4059434,31
1774408101.4254856,31
1774408101.4408154,33
1774408101.4571233,36
1774408101.471129,40
1774408101.488468,45
1774408101.5022223,52
1774408101.5272973,58
1774408101.5371015,62
1774408101.5675085,65
1774408101.5753362,67
1774408101.5934067,67
1774408101.6065295,66
1774408101.6228821,65
1774408101.6377645,64
1774408101.653729,63
1774408101.6740685,62
1774408101.700625,61
1774408101.7066858,59
1774408101.7259438,57
1774408101.7420275,55
1774408101.7578921,52
1774408101.7740538,50
1774408101.7913423,48
1774408101.804846,47
1774408101.8258438,46
1774408101.8350203,46
1774408101.8539987,45
1774408101.8702269,44
1774408101.8859932,44
1774408101.9067845,43
1774408101.931418,42
1774408101.9405153,41
1774408101.9633982,40
1774408101.976792,39
1774408101.9969542,38
1774408102.012487,37
1774408102.028833,36
1774408102.038862,36
1774408102.0565958,35
1774408102.0687842,35
1774408102.0937366,34
1774408102.1053073,34
1774408102.1185308,33
1774408102.1463718,33
1774408102.1553967,33
1774408102.1854336,32
1774408102.187537,32
1774408102.2016873,32
1774408102.2185082,32
1774408102.2350998,31
1774408102.2563176,31
1774408102.273303,31
1774408102.285486,30
1774408102.3043375,30
1774408102.3200932,30
1774408102.336816,29
1774408102.3555174,29
1774408102.3697193,30
1774408102.3918366,32
1774408102.405178,36
1774408102.4301152,40
1774408102.4369605,47
1774408102.4573479,53
1774408102.4702487,58
1774408102.5062342,63
1774408102.5064077,65
1774408102.5229108,66
1774408102.5452068,66
1774408102.5700533,65
1774408102.5700989,65
1774408102.5855894,64
1774408102.6022282,63
1774408102.6338954,62
1774408102.6399772,61
1774408102.655008,59
1774408102.681518,56
1774408102.703671,54
1774408102.7137258,51
1774408102.7211456,49
1774408102.7407336,47
1774408102.7524772,46
1774408102.7730613,45
1774408102.800227,44
1774408102.8049593,44
1774408102.8193603,43
1774408102.8366764,42
1774408102.8552325,41
1774408102.87176,40
1774408102.8854406,40
1774408102.9029915,39
1774408102.9212258,38
1774408102.9367645,37
1774408102.9526827,36
1774408102.9686918,35
1774408102.996483,35
1774408103.0090125,34
1774408103.019954,33
1774408103.044518,33
1774408103.0634487,33
1774408103.0794053,32
1774408103.0955224,32
1774408103.1081836,32
1774408103.1275303,31
1774408103.1406703,31
1774408103.1589386,31
1774408103.1731904,30
1774408103.196905,30
1774408103.2113693,30
1774408103.2234733,30
1774408103.2383435,32
1774408103.2524776,35
1774408103.2712326,40
1774408103.2870743,45
1774408103.3017595,50
1774408103.3189485,55
1774408103.348751,59
1774408103.3659816,61
1774408103.3690803,62
1774408103.398446,61
1774408103.404587,61
1774408103.4200356,60
1774408103.4361932,59
1774408103.4622793,58
1774408103.4766607,57
1774408103.493459,55
1774408103.510401,53
1774408103.5263999,51
1774408103.541072,48
1774408103.562017,46
1774408103.5728323,44
1774408103.5901089,43
1774408103.6063244,42
1774408103.6221693,41
1774408103.6382322,41
1774408103.6684768,40
1774408103.6692069,40
1774408103.6855242,40
1774408103.7015865,39
1774408103.7185352,38
1774408103.7349794,37
1774408103.7614224,36
1774408103.7688026,35
1774408103.7972841,34
1774408103.8064613,33
1774408103.8291798,33
1774408103.8447092,32
1774408103.8602533,32
1774408103.876885,31
1774408103.8931146,31
1774408103.9083686,31
1774408103.9247434,30
1774408103.9383113,30
1774408103.9568834,30
1774408103.9729784,30
1774408103.9886565,29
1774408104.0050166,29
1774408104.0185502,29
1774408104.0366762,28
1774408104.0644972,28
1774408104.0687256,28
1774408104.0856829,28
1774408104.1015964,28
1774408104.1292784,28
1774408104.1354585,27
1774408104.1566367,27
1774408104.179038,27
1774408104.2052774,28
1774408104.2104647,31
1774408104.2302673,35
1774408104.2427764,40
1774408104.2679565,45
1774408104.2767272,51
1774408104.2917652,56
1774408104.3024483,59
1774408104.3186054,61
1774408104.34122,62
1774408104.360971,61
1774408104.3708081,61
1774408104.388978,60
1774408104.402629,59
1774408104.4186795,58
1774408104.436473,56
1774408104.458235,55
1774408104.4686692,53
1774408104.4966633,51
1774408104.5055802,48
1774408104.5240545,46
1774408104.5445938,44
1774408104.551883,43
1774408104.575594,42
1774408104.587316,42
1774408104.6026216,41
1774408104.6245458,41
1774408104.6413372,40
1774408104.6682913,40
1774408104.6713293,39
1774408104.6880558,38
1774408104.7034354,37
1774408104.7325928,36
1774408104.745116,35
1774408104.7582026,34
1774408104.7799792,33
1774408104.7871997,32
1774408104.8091152,31
1774408104.821396,31
1774408104.8412678,30
1774408104.8521123,29
1774408104.8684003,29
1774408104.8937736,28
1774408104.9015136,27
1774408104.9201539,27
1774408104.9360464,26
1774408104.9519823,26
1774408104.9733448,25
1774408104.9861622,25
1774408105.0024567,24
1774408105.0215576,24
1774408105.0386095,23
1774408105.0573068,23
1774408105.0700238,23
1774408105.08737,23
1774408105.108915,25
1774408105.1220646,28
1774408105.1413748,32
1774408105.1607904,37
1774408105.1728733,41
1774408105.1867545,45
1774408105.2040288,49
1774408105.2250617,50
1774408105.2368808,51
1774408105.261171,51
1774408105.2686796,50
1774408105.2931173,58
1774408105.3033097,56
1774408105.3194675,54
1774408105.3424819,51
1774408105.3571236,48
1774408105.3732352,45
1774408105.3848891,41
1774408105.405916,39
1774408105.421221,37
1774408105.4451303,35
1774408105.4530675,34
1774408105.4736853,34
1774408105.4850414,34
1774408105.508695,33
1774408105.5277991,33
1774408105.5485854,32
1774408105.5648944,31
1774408105.5726335,29
1774408105.5891607,27
1774408105.604958,25
1774408105.6286733,23
1774408105.6366007,21
1774408105.6524105,20
1774408105.6766965,19
1774408105.6926384,18
1774408105.7087176,17
1774408105.7182045,16
1774408105.7406194,16
1774408105.7562091,15
1774408105.7729564,15
1774408105.788758,14
1774408105.8066623,13
1774408105.8223627,13
1774408105.841658,12
1774408105.8529837,12
1774408105.869392,11
1774408105.893745,10
1774408105.9086363,10
1774408105.919457,10
1774408105.9390087,9
1774408105.9559965,8
1774408105.973956,8
1774408105.9871128,8
1774408106.0057151,9
1774408106.0262704,12
1774408106.0369902,19
1774408106.060968,28
1774408106.071199,38
1774408106.0850396,49
1774408106.1062658,59
1774408106.1223183,67
1774408106.1354978,71
1774408106.1516917,74
1774408106.1698687,74
1774408106.1856973,73
1774408106.207493,72
1774408106.2337124,70
1774408106.2443097,69
1774408106.2620723,67
1774408106.2767751,64
1774408106.287425,61
1774408106.3031278,58
1774408106.3194768,54
1774408106.345649,50
1774408106.36213,46
1774408106.3728402,43
1774408106.3879168,41
1774408106.4040797,40
1774408106.4258847,40
1774408106.4371285,39
1774408106.457693,39
1774408106.4722524,37
1774408106.4848652,36
1774408106.505147,34
1774408106.5217462,32
1774408106.5454557,30
1774408106.5566366,28
1774408106.5698025,26
1774408106.5851228,25
1774408106.6136196,23
1774408106.627309,22
1774408106.6445553,21
1774408106.651528,20
1774408106.6770244,20
1774408106.6939294,19
1774408106.7091444,18
1774408106.7283878,17
1774408106.7420263,17
1774408106.7604241,16
1774408106.7718408,15
1774408106.7865112,14
1774408106.8083951,14
1774408106.8241851,13
1774408106.8403006,12
1774408106.8526363,12
1774408106.868174,11
1774408106.886374,10
1774408106.9046621,10
1774408106.9183187,9
1774408106.9363666,8
1774408106.9525735,8
1774408106.9698846,7
1774408106.9849093,7
1774408107.004042,6
1774408107.020206,6
1774408107.036696,6
1774408107.0515246,5
1774408107.0686731,7
1774408107.0946774,11
1774408107.1106179,18
1774408107.126047,27
1774408107.1370053,38
1774408107.1586444,49
1774408107.171104,59
1774408107.190165,66
1774408107.2060614,70
1774408107.2220027,71
1774408107.238699,71
1774408107.254123,70
1774408107.2681308,69
1774408107.2850184,68
1774408107.301641,67
1774408107.3183358,65
1774408107.339155,63
1774408107.3572793,60
1774408107.3817313,56
1774408107.3849764,53
1774408107.4018545,49
1774408107.4201744,45
1774408107.44452,42
1774408107.4620876,40
1774408107.4767165,39
1774408107.49423,38
1774408107.5085669,37
1774408107.5262997,36
1774408107.542144,35
1774408107.5580442,33
1774408107.568875,31
1774408107.5900755,30
1774408107.6060035,28
1774408107.6220055,26
1774408107.6383154,24
1774408107.6541896,23
1774408107.6681376,22
1774408107.6861622,21
1774408107.7014666,20
1774408107.7197943,19
1774408107.7486837,18
1774408107.752997,18
1774408107.7718844,17
1774408107.7857037,16
1774408107.8059418,16
1774408107.8182735,15
1774408107.8448887,14
1774408107.8612053,14
1774408107.8772457,13
1774408107.8865187,12
1774408107.9088879,12
1774408107.9254062,11
1774408107.9412863,10
1774408107.9572287,10
1774408107.973692,9
1774408107.988769,9
1774408108.0054846,9
1774408108.0249972,8
1774408108.035486,8
1774408108.052902,7
1774408108.068171,7
1774408108.084919,7
1774408108.104264,6
1774408108.12551,6
1774408108.134816,5
1774408108.1544783,5
1774408108.1707485,5
1774408108.1850204,4
1774408108.202742,4
1774408108.2186399,5
1774408108.2448416,7
1774408108.2592,12
1774408108.2765975,19
1774408108.2928643,29
1774408108.302246,39
1774408108.3191197,48
1774408108.3454494,57
1774408108.3567588,62
1774408108.3730056,65
1774408108.3886995,67
1774408108.4114952,66
1774408108.4209743,65
1774408108.4368386,64
1774408108.45284,63
1774408108.468906,62
1774408108.4848578,60
1774408108.5038912,58
1774408108.5179777,56
1774408108.5347419,54
1774408108.553637,51
1774408108.5802312,48
1774408108.5885901,45
1774408108.6122296,43
1774408108.6187675,41
1774408108.6429844,40
1774408108.6516626,40
1774408108.6765807,39
1774408108.700534,38
1774408108.7050548,37
1774408108.7179708,36
1774408108.7440145,34
1774408108.7531116,33
1774408108.7767606,31
1774408108.793892,29
1774408108.8028996,28
1774408108.8207042,27
1774408108.8419378,25
1774408108.854624,24
1774408108.8716793,23
1774408108.8847294,22
1774408108.9087033,21
1774408108.926513,20
1774408108.9465704,19
1774408108.9524176,18
1774408108.9698443,18
1774408108.986827,17
1774408109.0017633,16
1774408109.021972,15
1774408109.0426629,14
1774408109.0585907,13
1774408109.0748842,12
1774408109.0906343,11
1774408109.110814,10
1774408109.1182585,9
1774408109.1389189,9
1774408109.1543663,8
1774408109.17632,8
1774408109.186579,7
1774408109.2142751,6
1774408109.2198784,6
1774408109.2399757,5
1774408109.2562492,4
1774408109.277425,4
1774408109.2849154,3
1774408109.302669,3
1774408109.3302953,6
1774408109.3358004,11
1774408109.3616633,18
1774408109.3806021,27
1774408109.3908474,36
1774408109.402142,43
1774408109.4258873,49
1774408109.4359987,53
1774408109.4576905,55
1774408109.4714737,55
1774408109.4887154,53
1774408109.5047634,52
1774408109.5202057,50
1774408109.5360909,48
1774408109.5565736,46
1774408109.5682101,44
1774408109.5884247,41
1774408109.6021662,39
1774408109.6227295,37
1774408109.6403534,35
1774408109.6567602,33
1774408109.6739655,32
1774408109.6861284,32
1774408109.7113721,32
1774408109.7192857,32
1774408109.73715,32
1774408109.764923,32
1774408109.775814,31
1774408109.7916982,30
1774408109.8077695,29
1774408109.8238165,27
1774408109.839804,26
1774408109.855939,25
1774408109.8719661,24
1774408109.8869243,23
1774408109.90137,22
1774408109.927888,22
1774408109.9359186,21
1774408109.9518228,20
1774408109.9724095,20
1774408109.9908726,20
1774408110.0151513,19
1774408110.0304532,18
1774408110.0471117,18
1774408110.0557075,17
1774408110.0826054,17
1774408110.0932305,16
1774408110.109807,16
1774408110.118229,15
1774408110.1448977,15
1774408110.151244,14
1774408110.1750274,14
1774408110.1907713,14
1774408110.2065983,14
1774408110.2217133,15
1774408110.234599,18
1774408110.251608,23
1774408110.270651,30
1774408110.2865856,39
1774408110.302146,49
1774408110.3195524,58
1774408110.3365889,66
1774408110.354356,71
1774408110.3822966,74
1774408110.3916147,75
1774408110.4031377,75
1774408110.4195554,75
1774408110.436412,74
1774408110.4527564,73
1774408110.483374,72
1774408110.484612,70
1774408110.5089607,68
1774408110.5250912,65
1774408110.5380023,63
1774408110.5515404,59
1774408110.5731308,56
1774408110.5888097,54
1774408110.6062837,52
1774408110.6210423,51
1774408110.653106,50
1774408110.6661022,49
1774408110.6695518,48
1774408110.6901555,47
1774408110.7018857,46
1774408110.7321625,44
1774408110.749041,42
1774408110.7566772,40
1774408110.7813284,39
1774408110.7897413,37
1774408110.8096488,35
1774408110.8222935,34
1774408110.8448892,33
1774408110.8581169,32
1774408110.8766427,31
1774408110.884722,30
1774408110.9083753,29
1774408110.9245477,28
1774408110.952366,27
1774408110.9524431,27
1774408110.9726694,26
1774408110.9894114,25
1774408111.0220933,24
1774408111.0285132,24
1774408111.0364144,23
1774408111.0607877,23
1774408111.0688112,22
1774408111.0901058,22
1774408111.101209,21
1774408111.1184907,21
1774408111.1437237,21
1774408111.1645172,20
1774408111.1705005,20
1774408111.1902413,20
1774408111.2019522,19
1774408111.222568,20
1774408111.2435884,23
1774408111.2527099,29
1774408111.2752717,38
1774408111.2881858,46
1774408111.3022394,57
1774408111.3184338,67
1774408111.3396897,75
1774408111.3566525,80
1774408111.373859,83
1774408111.3957806,84
1774408111.4038057,83
1774408111.425818,82
1774408111.435814,81
1774408111.463163,79
1774408111.4767196,78
1774408111.489533,76
1774408111.5079327,73
1774408111.5181947,70
1774408111.541134,66
1774408111.5607283,62
1774408111.5796056,59
1774408111.5889654,56
1774408111.6117184,53
1774408111.6204937,51
1774408111.6345797,50
1774408111.6566126,49
1774408111.67248,47
1774408111.6847615,46
1774408111.715484,44
1774408111.7179232,42
1774408111.7355847,40
1774408111.7615108,39
1774408111.771644,37
1774408111.787752,35
1774408111.8112452,33
1774408111.8180547,31
1774408111.8381543,30
1774408111.8601277,28
1774408111.8759305,27
1774408111.8887913,26
1774408111.9025073,25
1774408111.9264765,25
1774408111.935104,24
1774408111.9623554,23
1774408111.9793155,22
1774408111.9909294,22
1774408112.0111492,21
1774408112.020663,20
1774408112.0446146,20
1774408112.0531106,19
1774408112.0748203,19
1774408112.0883677,18
1774408112.1059318,18
1774408112.1178017,17
1774408112.1373901,17
1774408112.1590743,17
1774408112.1783097,16
1774408112.190826,16
1774408112.2012687,16
1774408112.2237244,15
1774408112.2493694,15
1774408112.2601666,15
1774408112.2725453,14
1774408112.2860534,14
1774408112.3021727,15
1774408112.3200996,18
1774408112.3354082,23
1774408112.3552659,31
1774408112.3773932,40
1774408112.388878,50
1774408112.4047353,59
1774408112.4183507,67
1774408112.4414983,72
1774408112.4515398,74
1774408112.468069,75
1774408112.4847536,74
1774408112.5135972,73
1774408112.5178058,72
1774408112.5375144,71
1774408112.5564067,69
1774408112.568557,68
1774408112.591415,65
1774408112.6015437,63
1774408112.618002,59
1774408112.6354992,56
1774408112.653447,52
1774408112.6744938,49
1774408112.6928427,47
1774408112.705381,45
1774408112.7220364,44
1774408112.7417498,43
1774408112.7575347,42
1774408112.7883906,41
1774408112.788667,40
1774408112.8017192,39
1774408112.8248448,37
1774408112.8486362,35
1774408112.8542082,34
1774408112.8726034,32
1774408112.8887298,30
1774408112.9045777,29
1774408112.9183233,27
1774408112.9354627,26
1774408112.9528084,25
1774408112.9712534,25
1774408112.9845972,24
1774408113.0077682,23
1774408113.021819,23
1774408113.0347548,22
1774408113.0615034,22
1774408113.0709455,21
1774408113.085359,21
1774408113.1051304,20
1774408113.1234765,20
1774408113.1404142,19
1774408113.162179,19
1774408113.1757035,18
1774408113.1885045,18
1774408113.2012994,17
1774408113.222904,17
1774408113.2387378,17
1774408113.252705,17
1774408113.270799,17
1774408113.2867925,17
1774408113.3010783,17
1774408113.3184826,17
1774408113.33439,17
1774408113.367012,18
1774408113.3677318,21
1774408113.3964746,27
1774408113.4107316,35
1774408113.4267268,43
1774408113.4367466,53
1774408113.454576,61
1774408113.4783087,67
1774408113.4943752,71
1774408113.5018203,72
1774408113.520007,71
1774408113.5423374,70
1774408113.5581365,69
1774408113.5748746,68
1774408113.5890956,66
1774408113.6018047,65
1774408113.6207702,63
1774408113.6403313,60
1774408113.6545477,58
1774408113.670672,55
1774408113.696359,52
1774408113.7012582,50
1774408113.7178419,48
1774408113.7346005,47
1774408113.763647,46
1774408113.767811,46
1774408113.7974544,45
1774408113.8107784,44
1774408113.8282187,43
1774408113.8407795,41
1774408113.8605819,40
1774408113.8841252,39
1774408113.8925414,37
1774408113.9064593,35
1774408113.9257824,34
1774408113.9349027,33
1774408113.9574592,32
1774408113.9682815,31
1774408113.9886544,30
1774408114.0013034,29
1774408114.0216324,28
1774408114.0357578,28
1774408114.0615916,27
1774408114.0695834,27
1774408114.0870056,26
1774408114.1012588,25
1774408114.124152,25
1774408114.134361,25
1774408114.1510918,24
1774408114.1817553,24
1774408114.1974537,23
1774408114.2134204,23
1774408114.2264507,22
1774408114.2400825,22
1774408114.2541006,22
1774408114.2774856,21
1774408114.291918,21
1774408114.3021393,21
1774408114.3223279,24
1774408114.344182,29
1774408114.3575325,36
1774408114.3741524,44
1774408114.3900006,53
1774408114.4052665,62
1774408114.4213872,68
1774408114.4372795,72
1774408114.4512937,74
1774408114.4702604,74
1774408114.4851623,74
1774408114.5010638,73
1774408114.5231266,71
1774408114.545473,70
1774408114.551562,69
1774408114.5700712,67
1774408114.5865886,65
1774408114.6081636,62
1774408114.6288638,59
1774408114.642466,56
1774408114.6604958,53
1774408114.673968,51
1774408114.685763,50
1774408114.701637,49
1774408114.7189803,48
1774408114.735398,47
1774408114.7566135,46
1774408114.7748067,45
1774408114.785323,44
1774408114.8030052,42
1774408114.8278801,40
1774408114.835906,39
1774408114.8531723,38
1774408114.868817,36
1774408114.889791,35
1774408114.9019165,34
1774408114.917783,33
1774408114.9363742,32
1774408114.9556968,31
1774408114.9799318,30
1774408114.9896824,30
1774408115.0010743,29
1774408115.0274694,29
1774408115.042038,28
1774408115.0596766,27
1774408115.0754511,27
1774408115.0914588,26
1774408115.106517,26
1774408115.1234975,25
1774408115.139516,25
1774408115.1557202,25
1774408115.1679502,24
1774408115.1876028,24
1774408115.203586,23
1774408115.2196052,23
1774408115.2356718,23
1774408115.2623086,23
1774408115.2708933,23
1774408115.2854068,22
1774408115.300955,22
1774408115.3190832,22
1774408115.3371525,24
1774408115.3525462,29
1774408115.376521,36
1774408115.3955393,43
1774408115.400932,53
1774408115.4184952,63
1774408115.4362078,71
1774408115.4595432,77
1774408115.4681025,80
1774408115.4915357,81
1774408115.5016158,80
1774408115.5247722,79
1774408115.5383089,78
1774408115.556318,77
1774408115.5735455,75
1774408115.60358,74
1774408115.6037302,71
1774408115.6234443,68
1774408115.635824,65
1774408115.6601973,62
1774408115.6686008,58
1774408115.685688,55
1774408115.7038474,53
1774408115.7321844,51
1774408115.734754,50
1774408115.7624462,49
1774408115.7681115,48
1774408115.7958338,47
1774408115.8069646,45
1774408115.8291748,44
1774408115.8424945,42
1774408115.8628445,40
1774408115.867668,39
1774408115.8862934,37
1774408115.908085,35
1774408115.9236534,34
1774408115.9395666,33
1774408115.9596696,32
1774408115.9724412,31
1774408115.987659,30
1774408116.003844,30
1774408116.0202181,29
1774408116.0347683,28
1774408116.0569203,28
1774408116.0686784,27
1774408116.0920362,27
1774408116.1009512,26
1774408116.1265764,26
1774408116.1430116,25
1774408116.1565468,25
1774408116.1683123,24
1774408116.1943712,24
1774408116.2106156,24
1774408116.2270534,24
1774408116.234267,23
1774408116.250984,23
1774408116.2679558,23
1774408116.2917511,23
1774408116.301808,23
1774408116.3204837,22
1774408116.3412042,22
1774408116.3550618,24
1774408116.3714762,28
1774408116.4039772,34
1774408116.4046803,41
1774408116.4271085,51
1774408116.4354315,60
1774408116.4509053,69
1774408116.4677024,75
1774408116.4857225,79
1774408116.5009594,80
1774408116.5290487,80
1774408116.5457335,79
1774408116.5559382,78
1774408116.5680676,77
1774408116.5951633,75
1774408116.601072,74
1774408116.6247995,72
1774408116.6390524,69
1774408116.6529875,66
1774408116.6744435,62
1774408116.6907477,59
1774408116.706561,56
1774408116.7224429,53
1774408116.7385523,51
1774408116.7547512,50
1774408116.7720964,49
1774408116.7842605,48
1774408116.8041663,47
1774408116.8412976,46
1774408116.8414872,44
1774408116.8670838,43
1774408116.8687735,41
1774408116.8906572,40
1774408116.9008842,38
1774408116.930539,37
1774408116.9449816,35
1774408116.9620411,34
1774408116.9674988,33
1774408116.9908743,32
1774408117.000857,32
1774408117.0253704,31
1774408117.035342,30
1774408117.059688,30
1774408117.0676613,29
1774408117.087809,28
1774408117.1009486,28
1774408117.1293395,27
1774408117.1373594,26
1774408117.153585,26
1774408117.1718044,25
1774408117.1854274,25
1774408117.2046602,25
1774408117.233381,24
1774408117.2453458,24
1774408117.2534797,23
1774408117.2706938,23
1774408117.2854056,23
1774408117.3012018,22
1774408117.3263063,22
1774408117.33417,21
1774408117.3509007,21
1774408117.3773322,20
1774408117.390303,22
1774408117.4091878,25
1774408117.4285712,31
1774408117.4409282,39
1774408117.4515762,48
1774408117.4675674,57
1774408117.491918,65
1774408117.5046415,70
1774408117.520584,73
1774408117.5405917,74
1774408117.567103,73
1774408117.5705729,71
1774408117.595349,69
1774408117.6081228,68
1774408117.626525,66
1774408117.645481,64
1774408117.6533844,62
1774408117.6694448,59
1774408117.6862838,56
1774408117.7018158,53
1774408117.7174945,50
1774408117.7346222,48
1774408117.7596447,46
1774408117.7716813,46
1774408117.790449,45
1774408117.8159885,44
1774408117.8261409,44
1774408117.8364334,42
1774408117.8582218,41
1774408117.8763866,40
1774408117.8967776,39
1774408117.9146104,37
1774408117.9179833,35
1774408117.9367578,34
1774408117.9688835,33
1774408117.9782264,32
1774408117.9915838,31
1774408118.008245,30
1774408118.0298285,29
1774408118.0415914,28
1774408118.0612276,28
1774408118.074229,27
1774408118.1004434,26
1774408118.1010656,26
1774408118.1262364,25
1774408118.1369245,25
1774408118.1577868,24
1774408118.1739192,24
1774408118.1897585,23
1774408118.2089577,23
1774408118.221923,22
1774408118.2379596,22
1774408118.2514632,21
1774408118.2675357,21
1774408118.2861745,21
1774408118.301872,20
1774408118.3191001,20
1774408118.338764,20
1774408118.3660426,20
1774408118.3746305,19
1774408118.3978353,19
1774408118.404671,19
1774408118.4191637,20
1774408118.4409802,24
1774408118.4618304,30
1774408118.472528,38
1774408118.4896297,47
1774408118.500818,58
1774408118.525946,67
1774408118.5568366,73
1774408118.5578403,77
1774408118.5708282,78
1774408118.596071,78
1774408118.6129677,76
1774408118.6218128,75
1774408118.6398058,73
1774408118.651478,72
1774408118.6700716,70
1774408118.6851587,68
1774408118.7169735,66
1774408118.7174041,62
1774408118.7348897,59
1774408118.7659364,55
1774408118.7757778,52
1774408118.7845705,50
1774408118.801134,48
1774408118.8285244,47
1774408118.8396418,46
1774408118.852811,45
1774408118.868051,44
1774408118.885252,43
1774408118.900764,41
1774408118.9225192,40
1774408118.9347563,39
1774408118.9580038,37
1774408118.9770296,35
1774408118.9848921,34
1774408119.00685,32
1774408119.017683,31
1774408119.036909,30
1774408119.0527122,29
1774408119.0737398,29
1774408119.0844886,28
1774408119.104458,28
1774408119.118897,27
1774408119.140686,27
1774408119.156319,26
1774408119.1804974,25
1774408119.1973925,25
1774408119.2104816,24
1774408119.2325952,24
1774408119.2370188,23
1774408119.2597857,23
1774408119.2709463,22
1774408119.2915037,22
1774408119.3008394,22
1774408119.318495,21
1774408119.3356845,21
1774408119.3554378,20
1774408119.3757026,20
1774408119.3840544,20
1774408119.416031,19
1774408119.4266477,19
1774408119.4355159,19
1774408119.4515388,18
1774408119.4720385,18
1774408119.4957411,17
1774408119.5060992,17
1774408119.526528,18
1774408119.535135,20
1774408119.5634701,25
1774408119.572669,32
1774408119.5954063,41
1774408119.6065302,51
1774408119.6276114,61
1774408119.6347346,69
1774408119.659704,75
1774408119.6719334,77
1774408119.6966555,78
1774408119.702673,77
1774408119.7287965,75
1774408119.739144,74
1774408119.7541494,72
1774408119.7681646,71
1774408119.7988591,69
1774408119.802551,67
1774408119.8210576,64
1774408119.839099,61
1774408119.8731945,57
1774408119.8758564,53
1774408119.8981538,50
1774408119.9128015,48
1774408119.9301524,46
1774408119.93947,45
1774408119.9540453,44
1774408119.976564,43
1774408119.989814,42
1774408120.0045688,40
1774408120.027612,40
1774408120.03561,38
1774408120.058151,36
1774408120.0742905,34
1774408120.088302,32
1774408120.1016462,31
1774408120.1183488,30
1774408120.142185,28
1774408120.1532555,27
1774408120.16929,26
1774408120.184112,26
1774408120.200783,25
1774408120.2231433,24
1774408120.239734,24
1774408120.264817,23
1774408120.280586,23
1774408120.2852695,22
1774408120.3019676,22
1774408120.3181748,21
1774408120.3347292,21
1774408120.3544095,20
1774408120.3740687,20
1774408120.3885317,19
1774408120.4065268,19
1774408120.4220243,18
1774408120.4401956,18
1774408120.45662,17
1774408120.4701195,17
1774408120.4846473,16
1774408120.516838,16
1774408120.5196664,16
1774408120.5354354,15
1774408120.55151,15
1774408120.575441,15
1774408120.5839863,14
1774408120.6134357,14
1774408120.6222355,13
1774408120.6354887,13
1774408120.6564858,15
1774408120.6796176,20
1774408120.6879656,27
1774408120.7091978,35
1774408120.7275093,44
1774408120.7432423,53
1774408120.7599156,61
1774408120.7727113,66
1774408120.7915986,69
1774408120.805433,69
1774408120.8173993,69
1774408120.836925,67
1774408120.851292,66
1774408120.8686318,64
1774408120.8883219,63
1774408120.9020085,61
1774408120.9173024,60
1774408120.934563,57
1774408120.9510098,55
1774408120.9674177,52
1774408120.9912643,49
1774408121.012573,46
1774408121.0183914,44
1774408121.034104,43
1774408121.0633352,42
1774408121.0766218,41
1774408121.094522,40
1774408121.1069024,40
1774408121.1259034,39
1774408121.1419382,38
1774408121.1623616,36
1774408121.173105,34
1774408121.1890032,33
1774408121.2042563,31
1774408121.2178683,30
1774408121.2346992,29
1774408121.2523339,28
1774408121.268962,27
1774408121.2851238,26
1774408121.301139,26
1774408121.317275,25
1774408121.33828,24
1774408121.3534117,24
1774408121.3810482,23
1774408121.3846152,22
1774408121.4020684,22
1774408121.4208841,21
1774408121.4444501,20
1774408121.459203,20
1774408121.4771159,19
1774408121.4859362,18
1774408121.508605,18
1774408121.5250998,17
1774408121.5460975,16
1774408121.557036,16
1774408121.5731595,15
1774408121.5919013,15
1774408121.6110525,15
1774408121.6211653,15
1774408121.6436634,15
1774408121.656549,14
1774408121.6678646,14
1774408121.6847446,13
1774408121.7007215,13
1774408121.717248,14
1774408121.733993,18
1774408121.7645264,23
1774408121.7687755,31
1774408121.7849374,40
1774408121.8107157,48
1774408121.8216343,56
1774408121.8445375,62
1774408121.8602424,65
1774408121.8733065,66
1774408121.885067,66
1774408121.908519,65
1774408121.9320834,63
1774408121.9405031,62
1774408121.9565597,60
1774408121.976654,59
1774408121.9886172,57
1774408122.0049107,55
1774408122.017861,53
1774408122.0367126,50
1774408122.0529356,48
1774408122.0688965,46
1774408122.0913806,44
1774408122.1018145,43
1774408122.1172311,43
1774408122.1346443,42
1774408122.1505868,42
1774408122.1727114,41
1774408122.1839864,40
1774408122.207416,40
1774408122.2253573,39
1774408122.2445416,37
1774408122.2515578,35
1774408122.2768347,34
1774408122.287285,33
1774408122.3012667,32
1774408122.3191535,31
1774408122.3407037,30
1774408122.3507447,30
1774408122.3710473,29
1774408122.388604,28
1774408122.4038377,28
1774408122.4193373,27
1774408122.436574,27
1774408122.4529138,26
1774408122.4677036,26
1774408122.4848213,25
1774408122.500694,25
1774408122.5172274,24
1774408122.546539,24
1774408122.552751,23
1774408122.5790405,23
1774408122.5970328,23
1774408122.6065302,22
1774408122.6274972,22
1774408122.6445901,21
1774408122.6518111,21
1774408122.6765563,21
1774408122.6925304,20
1774408122.7086926,20
1774408122.7185266,20
1774408122.7430775,19
1774408122.7631025,19
1774408122.7720156,19
1774408122.7869864,19
1774408122.8017118,22
1774408122.830703,27
1774408122.836352,34
1774408122.8520756,43
1774408122.8680413,53
1774408122.884085,63
1774408122.9119568,71
1774408122.9225943,76
1774408122.9478915,79
1774408122.9559722,79
1774408122.9804335,78
1774408122.989071,77
1774408123.0022972,75
1774408123.0173268,74
1774408123.0440543,72
1774408123.0507517,71
1774408123.0761206,69
1774408123.104181,66
1774408123.1049445,63
1774408123.1172152,61
1774408123.1422849,58
1774408123.1556113,55
1774408123.178091,53
1774408123.187683,52
1774408123.2053874,51
1774408123.2195313,50
1774408123.2363613,49
1774408123.256371,48
1774408123.2676775,47
1774408123.2839377,45
1774408123.3010151,44
1774408123.3172138,42
1774408123.3380072,40
1774408123.355097,40
1774408123.379423,38
1774408123.3866193,37
1774408123.4043953,36
1774408123.4279733,35
1774408123.4417124,34
1774408123.4538493,33
1774408123.4756403,33
1774408123.4915783,32
1774408123.5073376,32
1774408123.5197546,31
1774408123.539559,31
1774408123.55225,30
1774408123.5829709,30
1774408123.5877218,30
1774408123.603082,29
1774408123.6195297,29
1774408123.6356382,28
1774408123.652013,28
1774408123.6675713,27
1774408123.68463,27
1774408123.7104402,27
1774408123.7171836,26
1774408123.7413287,26
1774408123.752176,25
1774408123.7795653,25
1774408123.785957,25
1774408123.8016255,24
1774408123.8246994,24
1774408123.8370264,23
1774408123.8505974,23
1774408123.874606,23
1774408123.8871763,25
1774408123.9073412,29
1774408123.9234273,36
1774408123.939617,44
1774408123.9564993,54
1774408123.9685001,64
1774408123.988457,73
1774408124.0012019,79
1774408124.0185864,82
1774408124.033982,83
1774408124.0539649,83
1774408124.0676937,81
1774408124.0906947,79
1774408124.10715,78
1774408124.1187868,76
1774408124.139479,75
1774408124.1523836,73
1774408124.1784728,70
1774408124.1845975,68
1774408124.20215,64
1774408124.2172704,61
1774408124.2360947,58
1774408124.25089,56
1774408124.2744975,54
1774408124.2868278,53
1774408124.3011134,52
1774408124.320491,51
1774408124.3426464,51
1774408124.3568566,50
1774408124.369961,48
1774408124.385168,47
1774408124.4180126,45
1774408124.4227045,43
1774408124.4340827,41
1774408124.4603887,40
1774408124.4745455,39
1774408124.4846168,38
1774408124.5011177,36
1774408124.5223315,35
1774408124.545216,34
1774408124.5512874,33
1774408124.5680108,32
1774408124.587109,31
1774408124.6052852,30
1774408124.61772,29
1774408124.6445298,28
1774408124.6515787,27
1774408124.6892111,27
1774408124.689819,26
1774408124.7054992,25
1774408124.7211711,24
1774408124.7361186,24
1774408124.7532406,23
1774408124.7692988,23
1774408124.7845545,22
1774408124.8013697,22
1774408124.8207881,21
1774408124.8460085,20
1774408124.85265,20
1774408124.8677323,19
1774408124.8858693,21
1774408124.9021184,24
1774408124.9218626,30
1774408124.9347436,38
1774408124.953793,46
1774408124.972586,56
1774408124.9848554,64
1774408125.0081768,70
1774408125.024963,73
1774408125.0401578,73
1774408125.0564194,72
1774408125.0760453,70
1774408125.089587,68
1774408125.1025746,66
1774408125.1202116,64
1774408125.1529288,62
1774408125.1562002,60
1774408125.168153,57
1774408125.1888843,54
1774408125.2205627,52
1774408125.2206511,49
1774408125.246721,47
1774408125.256128,46
1774408125.2797422,45
1774408125.284518,45
1774408125.3012245,44
1774408125.3171778,44
1774408125.3342078,43
1774408125.358332,42
1774408125.3722646,41
1774408125.3855815,40
1774408125.4066923,39
1774408125.4171124,37
1774408125.4387438,36
1774408125.4629798,35
1774408125.475139,34
1774408125.4868422,33
1774408125.500774,32
1774408125.5186496,32
1774408125.5342388,31
1774408125.5527713,31
1774408125.575716,30
1774408125.5885603,30
1774408125.6010442,29
1774408125.6191716,29
1774408125.6339047,28
1774408125.6525862,28
1774408125.6778455,28
1774408125.6846645,27
1774408125.7106714,27
1774408125.7170377,26
1774408125.7424412,26
1774408125.754563,26
1774408125.7680829,26
1774408125.789658,26
1774408125.8063595,25
1774408125.8222997,25
1774408125.834634,25
1774408125.8543255,26
1774408125.873682,29
1774408125.8862896,35
1774408125.9023929,42
1774408125.9259274,52
1774408125.93393,62
1774408125.9581842,71
1774408125.9683135,77
1774408125.9850821,81
1774408126.0205429,82
1774408126.0228121,81
1774408126.0367286,80
1774408126.0532808,78
1774408126.076566,76
1774408126.0852706,75
1774408126.1044257,73
1774408126.117004,71
1774408126.1449757,68
1774408126.1507688,65
1774408126.176192,61
1774408126.185118,58
1774408126.2046192,55
1774408126.2247782,52
1774408126.2364473,51
1774408126.252424,50
1774408126.2747803,49
1774408126.284209,48
1774408126.3014252,47
1774408126.3181581,46
1774408126.337767,44
1774408126.3506773,43
1774408126.3698797,41
1774408126.3948333,40
1774408126.4022644,38
1774408126.4205885,37
1774408126.4361093,36
1774408126.4581976,35
1774408126.4678743,34
1774408126.4846742,33
1774408126.501051,32
1774408126.5174198,31
1774408126.5339267,30
1774408126.5559232,30
1774408126.5698173,29
1774408126.584364,29
1774408126.6042578,28
1774408126.6215355,28
1774408126.6336908,27
1774408126.658496,27
1774408126.6674016,26
1774408126.6846943,26
1774408126.7096865,25
1774408126.724594,25
1774408126.7408574,25
1774408126.7599547,24
1774408126.7680104,24
1774408126.7890992,24
1774408126.802252,23
1774408126.8206785,23
1774408126.843975,23
1774408126.8526306,22
1774408126.875133,22
1774408126.8850007,23
1774408126.9010317,27
1774408126.9169567,33
1774408126.933783,41
1774408126.952513,51
1774408126.9790452,61
1774408126.9880059,70
1774408127.0040243,77
1774408127.018458,81
1774408127.0347197,82
1774408127.0520072,82
1774408127.0682437,80
1774408127.0841753,79
1774408127.1112192,77
1774408127.1297028,76
1774408127.1382196,75
1774408127.1545415,73
1774408127.1737354,70
1774408127.1886458,67
1774408127.2017136,64
1774408127.2271144,60
1774408127.2351213,57
1774408127.2546422,54
1774408127.2749455,52
1774408127.2891688,51
1774408127.301437,49
1774408127.3169477,48
1774408127.3440273,47
1774408127.3603094,46
1774408127.3705547,45
1774408127.3868783,43
1774408127.4013324,41
1774408127.4186234,40
1774408127.4459398,38
1774408127.4545238,37
1774408127.467026,35
1774408127.4842143,34
1774408127.5015137,33
1774408127.5238485,32
1774408127.5397327,31
1774408127.556527,30
1774408127.5681822,29
1774408127.5900874,28
1774408127.6051881,27
1774408127.6255333,27
1774408127.6443586,26
1774408127.6542182,25
1774408127.6709194,24
1774408127.6889045,23
1774408127.702279,22
1774408127.7207541,21
1774408127.7337065,20
1774408127.7520292,19
1774408127.7687998,19
1774408127.784641,18
1774408127.8063133,18
1774408127.8274975,17
1774408127.8411348,17
1774408127.8596325,16
1774408127.8681655,16
1774408127.894366,16
1774408127.901723,18
1774408127.9280887,23
1774408127.9338865,30
1774408127.9578655,38
1774408127.973187,47
1774408127.992052,56
1774408128.0070555,63
1774408128.0206356,68
1774408128.036946,70
1774408128.0560055,69
1774408128.068191,68
1774408128.0881493,67
1774408128.1041372,65
1774408128.122439,63
1774408128.1336548,62
1774408128.1569605,60
1774408128.1679575,58
1774408128.1869507,55
1774408128.2015371,52
1774408128.2244196,49
1774408128.2343688,47
1774408128.260619,45
1774408128.267176,44
1774408128.2840369,43
1774408128.3017375,42
1774408128.3217404,42
1774408128.3362322,41
1774408128.352108,40
1774408128.368302,40
1774408128.3912437,39
1774408128.4071593,37
1774408128.420707,35
1774408128.4391706,34
1774408128.4526644,32
1774408128.4683194,31
1774408128.4867477,30
1774408128.5029347,30
1774408128.5177822,29
1774408128.5348516,28
1774408128.5514395,28
1774408128.5671978,28
1774408128.5922525,27
1774408128.6028376,26
1774408128.6296384,26
1774408128.6367495,25
1774408128.662049,25
1774408128.6698875,24
1774408128.6940334,24
1774408128.709856,24
1774408128.7259705,23
1774408128.735297,23
1774408128.7566488,23
1774408128.7672634,22
1774408128.7886205,22
1774408128.8050652,22
1774408128.8218522,22
1774408128.8415737,21
1774408128.8699832,21
1774408128.8700829,21
1774408128.885208,21
1774408128.9020448,20
1774408128.9182832,20
1774408128.934013,20
1774408128.95067,21
1774408128.971523,24
1774408128.9934258,30
1774408129.010247,38
1774408129.0268312,47
1774408129.0378685,57
1774408129.0568585,67
1774408129.0672157,75
1774408129.0839183,79
1774408129.1098588,81
1774408129.119407,81
1774408129.1419075,80
1774408129.1566257,78
1774408129.176807,77
1774408129.1893027,75
1774408129.2133179,74
1774408129.221802,72
1774408129.2369163,70
1774408129.2537637,67
1774408129.2699347,64
1774408129.2858448,60
1774408129.3008192,57
1774408129.3183453,54
1774408129.3339581,52
1774408129.3503861,50
1774408129.3751423,49
1774408129.3844197,48
1774408129.4039688,47
1774408129.4173663,46
1774408129.4373267,45
1774408129.4604602,43
1774408129.4682004,42
1774408129.4924028,40
1774408129.5008416,39
1774408129.5197086,37
1774408129.5419276,36
1774408129.5576677,35
1774408129.574176,34
1774408129.5886834,33
1774408129.6053593,32
1774408129.6214783,31
1774408129.637574,31
1774408129.6505783,30
1774408129.669543,29
1774408129.685346,29
1774408129.7005582,28
1774408129.717366,28
1774408129.7335932,27
1774408129.760692,27
1774408129.768024,26
1774408129.7965472,26
1774408129.80195,25
1774408129.8268888,25
1774408129.8418095,24
1774408129.860965,24
1774408129.8670928,23
1774408129.8929892,23
1774408129.9148114,22
1774408129.9208758,22
1774408129.9345508,22
1774408129.956452,21
1774408129.9730222,21
1774408129.9889257,20
1774408130.004935,20
1774408130.0179455,19
1774408130.0339072,19
1774408130.0584593,19
1774408130.0686376,21
1774408130.0850728,25
1774408130.1008663,33
1774408130.1170578,41
1774408130.134484,52
1774408130.150208,62
1774408130.1704233,70
1774408130.1953354,76
1774408130.221294,78
1774408130.223144,79
1774408130.235363,78
1774408130.2506206,76
1774408130.276472,75
1774408130.2863996,73
1774408130.3007414,72
1774408130.3193893,71
1774408130.3378496,69
1774408130.3558254,66
1774408130.3719096,63
1774408130.3879125,59
1774408130.406431,56
1774408130.4191673,53
1774408130.443034,50
1774408130.4515388,48
1774408130.4686005,47
1774408130.4837203,46
1774408130.5006843,45
1774408130.5240548,44
1774408130.5334482,43
1774408130.5572455,41
1774408130.5698986,40
1774408130.5950599,39
1774408130.6068904,37
1774408130.6281316,35
1774408130.64531,34
1774408130.6580274,32
1774408130.6682997,31
1774408130.6905537,30
1774408130.7066169,29
1774408130.7188654,28
1774408130.7347414,27
1774408130.7544167,26
1774408130.771016,25
1774408130.786131,24
1774408130.8028204,24
1774408130.8184192,23
1774408130.8347194,22
1774408130.8509207,21
1774408130.8721907,20
1774408130.8852396,19
1774408130.9019156,18
1774408130.9218228,18
1774408130.935292,17
1774408130.9542735,17
1774408130.971046,16
1774408130.9944928,16
1774408131.0103898,16
1774408131.0266066,15
1774408131.0346904,15
1774408131.0533938,14
1774408131.0744977,14
1774408131.090452,13
1774408131.101711,14
1774408131.1224036,16
1774408131.1430113,21
1774408131.150579,28
1774408131.1705344,37
1774408131.1846187,47
1774408131.204362,57
1774408131.2240133,65
1774408131.2361429,70
1774408131.2608573,72
1774408131.2683275,71
1774408131.2852314,70
1774408131.300623,68
1774408131.3186462,66
1774408131.3345504,64
1774408131.3665314,62
1774408131.366741,60
1774408131.3932395,57
1774408131.4093282,54
1774408131.4251597,51
1774408131.4411976,48
1774408131.4572127,46
1774408131.4676836,44
1774408131.4891276,43
1774408131.5090122,43
1774408131.521512,42
1774408131.540099,42
1774408131.553167,41
1774408131.577159,41
1774408131.593297,40
1774408131.6012766,39
1774408131.617113,37
1774408131.6364594,36
1774408131.651494,34
1774408131.669117,33
1774408131.6948154,32
1774408131.7028866,31
1774408131.7204957,30
1774408131.7333906,29
1774408131.750534,28
1774408131.7679927,27
1774408131.792069,27
1774408131.801308,26
1774408131.8226955,26
1774408131.8334026,26
1774408131.8620262,25
1774408131.8720593,25
1774408131.888309,25
1774408131.9036734,24
1774408131.918418,24
1774408131.9402084,24
1774408131.9601774,24
1774408131.97503,23
1774408131.9843009,23
1774408132.000141,23
1774408132.0172234,23
1774408132.0381887,23
1774408132.0512455,23
1774408132.0704906,23
1774408132.0870883,23
1774408132.1014225,23
1774408132.126277,23
1774408132.1339083,23
1774408132.1513162,23
1774408132.1672158,25
1774408132.183854,30
1774408132.207112,38
1774408132.2252965,46
1774408132.2380805,58
1774408132.2541466,69
1774408132.2710881,78
1774408132.2870877,85
1774408132.3009937,88
1774408132.3178558,89
1774408132.3351488,88
1774408132.3514996,87
1774408132.3672774,85
1774408132.3872924,83
1774408132.4045632,81
1774408132.4180353,80
1774408132.4366155,77
1774408132.4509108,74
1774408132.468711,71
1774408132.4847949,67
1774408132.5016909,63
1774408132.5288742,60
1774408132.5333855,57
1774408132.5587378,54
1774408132.5715244,53
1774408132.590662,52
1774408132.606737,50
1774408132.6227076,49
1774408132.636846,48
1774408132.656339,46
1774408132.6707516,44
1774408132.6875808,42
1774408132.7028272,40
1774408132.718809,39
1774408132.7348268,38
1774408132.756706,36
1774408132.7725189,35
1774408132.7950976,34
1774408132.8047416,33
1774408132.821656,32
1774408132.836416,31
1774408132.8515182,31
1774408132.8738003,30
1774408132.896548,29
1774408132.9009247,29
1774408132.9264085,28
1774408132.9333265,28
1774408132.9513884,27
1774408132.9681911,26
1774408132.9924097,26
1774408133.0036783,25
1774408133.0197942,24
1774408133.0403888,24
1774408133.0546281,23
1774408133.070764,23
1774408133.0902586,23
1774408133.1018271,22
1774408133.1200078,22
1774408133.1393697,22
1774408133.1563048,21
1774408133.1727185,22
1774408133.1961696,21
1774408133.2082815,21
1774408133.2229395,20
1774408133.2393155,20
1774408133.2564754,20
1774408133.2741678,21
1774408133.2934716,25
1774408133.3004065,32
1774408133.3172195,40
1774408133.3374379,51
1774408133.3596678,63
1774408133.3723543,73
1774408133.389659,81
1774408133.4055786,85
1774408133.418063,87
1774408133.4376032,86
1774408133.4536185,85
1774408133.4671807,83
1774408133.4847248,81
1774408133.5010676,79
1774408133.5168297,77
1774408133.5334084,75
1774408133.5510542,73
1774408133.5756462,69
1774408133.5966666,66
1774408133.6056647,62
1774408133.6284964,58
1774408133.6458437,55
1774408133.6604655,53
1774408133.6709492,51
1774408133.6841261,50
1774408133.7007217,49
1774408133.7180934,48
1774408133.7348187,47
1774408133.7520227,45
1774408133.766669,43
1774408133.7871187,41
1774408133.806211,40
1774408133.8192496,38
1774408133.8352234,36
1774408133.851253,34
1774408133.8808584,33
1774408133.8839965,31
1774408133.9135776,30
1774408133.926539,29
1774408133.945575,28
1774408133.9616308,27
1774408133.9751081,26
1774408133.9914904,26
1774408134.0067182,25
1774408134.017529,24
1774408134.0416694,24
1774408134.0575588,23
1774408134.0690484,22
1774408134.0843875,21
1774408134.1023633,20
1774408134.1215398,20
1774408134.1376548,19
1774408134.150483,19
1774408134.1805115,18
1774408134.1850667,18
1774408134.201646,17
1774408134.219646,17
1774408134.233682,17
1774408134.2513466,17
1774408134.275965,20
1774408134.2864876,26
1774408134.30107,34
1774408134.3184633,43
1774408134.340655,54
1774408134.3594718,64
1774408134.3666704,72
1774408134.3898563,76
1774408134.4045186,78
1774408134.421637,78
1774408134.441008,77
1774408134.4576476,75
1774408134.468616,72
1774408134.4867187,71
1774408134.5008068,69
1774408134.5181737,66
1774408134.5341108,64
1774408134.5524373,60
1774408134.5678997,57
1774408134.5857153,54
1774408134.6065404,51
1774408134.6189733,49
1774408134.6420767,48
1774408134.6580148,48
1774408134.679859,47
1774408134.6850145,47
1774408134.7097628,46
1774408134.7265527,45
1774408134.7474442,43
1774408134.7572803,41
1774408134.7725646,40
1774408134.788828,38
1774408134.8091433,36
1774408134.8231938,35
1774408134.8402648,34
1774408134.857665,33
1774408134.8720438,32
1774408134.8868592,31
1774408134.9067428,31
1774408134.9217496,30
1774408134.9375515,30
1774408134.949836,30
1774408134.9696867,29
1774408134.983533,29
1774408135.0015628,29
1774408135.0181472,28
1774408135.0362897,28
1774408135.0498507,27
1774408135.078276,27
1774408135.0975392,27
1774408135.1033778,26
1774408135.118328,26
1774408135.1430624,26
1774408135.1567512,26
1774408135.177499,25
1774408135.1934876,25
1774408135.2066357,25
1774408135.220687,25
1774408135.236564,25
1774408135.2589996,27
1774408135.2712595,31
1774408135.2850058,39
1774408135.3004146,48
1774408135.3166113,60
1774408135.3364053,71
1774408135.3525727,81
1774408135.3683515,88
1774408135.3832517,92
1774408135.4004264,93
1774408135.4165344,93
1774408135.4445565,91
1774408135.4520283,90
1774408135.4672644,88
1774408135.4854887,86
1774408135.5115292,85
1774408135.528019,83
1774408135.54059,79
1774408135.556845,76
1774408135.5724955,72
1774408135.5919728,68
1774408135.6081007,64
1774408135.6174266,61
1774408135.6339266,59
1774408135.6537414,57
1774408135.6721022,56
1774408135.6871414,55
1774408135.7135653,54
1774408135.7175348,52
1774408135.736058,50
1774408135.7521408,48
1774408135.7680888,46
1774408135.7837477,44
1774408135.8006232,42
1774408135.8172288,40
1774408135.8476284,39
1774408135.8635454,38
1774408135.8796878,36
1774408135.904165,35
1774408135.904341,35
1774408135.9189203,34
1774408135.940442,33
1774408135.959599,32
1774408135.9725962,32
1774408135.9846551,31
1774408136.0046465,30
1774408136.0235107,29
1774408136.0385723,29
1774408136.0517662,28
1774408136.0686996,27
1774408136.0845978,26
1774408136.1020515,25
1774408136.1166625,25
1774408136.1349986,24
1774408136.1553206,23
1774408136.178947,22
1774408136.1831243,22
1774408136.2179205,21
1774408136.2182224,21
1774408136.23472,20
1774408136.2577524,19
1774408136.2764258,19
1774408136.2875905,18
1774408136.300975,19
1774408136.3178055,22
1774408136.3413944,29
1774408136.358561,37
1774408136.3746548,47
1774408136.4062822,59
1774408136.4064183,70
1774408136.4226623,79
1774408136.4451156,84
1774408136.4543707,86
1774408136.4702358,86
1774408136.4867568,85
1774408136.502639,83
1774408136.5183227,81
1774408136.5485156,79
1774408136.5504913,77
1774408136.5804949,75
1774408136.58378,72
1774408136.6071167,69
1774408136.6180203,65
1774408136.645544,60
1774408136.6544993,56
1774408136.668938,53
1774408136.6933365,51
1774408136.7093956,50
1774408136.7174785,49
1774408136.7406344,48
1774408136.757386,47
1774408136.773031,45
1774408136.7878869,44
1774408136.8054025,42
1774408136.820498,40
1774408136.8373404,38
1774408136.8514748,36
1774408136.86741,34
1774408136.8844433,33
1774408136.900971,31
1774408136.917511,30
1774408136.9435315,29
1774408136.9497879,28
1774408136.9700346,28
1774408136.9974494,27
1774408137.0136132,27
1774408137.021334,26
1774408137.036501,26
1774408137.0615263,25
1774408137.073573,25
1774408137.0847697,24
1774408137.1084921,24
1774408137.1252167,23
1774408137.1407413,22
1774408137.1570299,22
1774408137.1734397,21
1774408137.1885495,21
1774408137.201223,21
1774408137.2225878,20
1774408137.2363832,20
1774408137.2520912,19
1774408137.2724774,19
1774408137.2845523,21
1774408137.3009915,25
1774408137.3165815,32
1774408137.333781,41
1774408137.349717,53
1774408137.3674247,65
1774408137.3968043,75
1774408137.4125183,83
1774408137.4257765,87
1774408137.4445407,88
1774408137.452243,88
1774408137.467572,86
1774408137.4893167,85
1774408137.5089276,83
1774408137.5245798,81
1774408137.5409417,79
1774408137.5571184,77
1774408137.5697632,74
1774408137.58812,70
1774408137.6030223,66
1774408137.6208763,62
1774408137.6370528,59
1774408137.65249,56
1774408137.6679587,54
1774408137.6843438,53
1774408137.7118688,52
1774408137.7165482,52
1774408137.7488484,50
1774408137.749713,49
1774408137.780834,47
1774408137.793691,45
1774408137.8113074,43
1774408137.8177705,41
1774408137.8402336,40
1774408137.8513598,38
1774408137.8677325,36
1774408137.8837702,35
1774408137.9011283,34
1774408137.917418,33
1774408137.938467,32
1774408137.9664667,31
1774408137.9780076,31
1774408137.9884326,30
1774408138.0030332,29
1774408138.0204618,29
1774408138.0354562,28
1774408138.052709,27
1774408138.0683749,27
1774408138.084581,26
1774408138.100498,26
1774408138.116599,25
1774408138.1330898,25
1774408138.1501734,24
1774408138.1803803,24
1774408138.184004,24
1774408138.2185075,23
1774408138.222561,23
1774408138.2357445,22
1774408138.2664194,22
1774408138.2741253,22
1774408138.292981,21
1774408138.3107712,21
1774408138.3177297,21
1774408138.334862,21
1774408138.3558087,23
1774408138.370021,28
1774408138.3884003,37
1774408138.4044926,47
1774408138.4212794,60
1774408138.4347665,73
1774408138.4509566,84
1774408138.4678671,91
1774408138.4843602,95
1774408138.500042,96
1774408138.5181563,95
1774408138.535715,93
1774408138.5496652,91
1774408138.5710316,89
1774408138.5904377,87
1774408138.611957,85
1774408138.617519,83
1774408138.6433768,79
1774408138.6570334,75
1774408138.6822655,71
1774408138.682983,66
1774408138.7084286,62
1774408138.7229962,59
1774408138.7345138,56
1774408138.7550142,54
1774408138.7766867,53
1774408138.7885349,52
1774408138.801196,51
1774408138.8191135,49
1774408138.8387432,47
1774408138.8524787,45
1774408138.8823156,43
1774408138.8896055,41
1774408138.9093463,40
1774408138.916838,38
1774408138.9473135,36
1774408138.949712,34
1774408138.9789655,33
1774408138.983185,32
1774408139.0110178,30
1774408139.0269527,29
1774408139.0340075,28
1774408139.0553367,27
1774408139.0750086,26
1774408139.0871716,25
1774408139.1070235,24
1774408139.1169543,23
1774408139.1346295,22
1774408139.154111,21
1774408139.1779087,20
1774408139.190326,19
1774408139.2034981,18
1774408139.2185855,17
1774408139.2342665,17
1774408139.255026,16
1774408139.2788014,16
1774408139.2846227,15
1774408139.301242,14
1774408139.3172855,14
1774408139.3386636,13
1774408139.3507543,12
1774408139.3772025,12
1774408139.3832383,14
1774408139.4007227,18
1774408139.4163513,26
1774408139.4348397,36
1774408139.4581113,47
1774408139.4731107,59
1774408139.490316,69
1774408139.5061243,76
1774408139.5224438,79
1774408139.533871,80
1774408139.5599287,78
1774408139.570378,76
1774408139.5862484,74
1774408139.6071854,72
1774408139.617861,70
1774408139.6339188,67
1774408139.6497536,64
1774408139.667954,61
1774408139.684775,58
1774408139.71168,54
1774408139.7204611,50
1774408139.7359614,48
1774408139.7497392,46
1774408139.774951,45
1774408139.7853248,45
1774408139.809287,44
1774408139.8243823,44
1774408139.8337889,43
1774408139.8605886,41
1774408139.868314,40
1774408139.8968086,38
1774408139.905242,36
1774408139.925575,35
1774408139.9340463,33
1774408139.9617393,31
1774408139.9692209,30
1774408139.9891021,29
1774408140.001218,28
1774408140.019318,27
1774408140.0410717,27
1774408140.0536904,26
1774408140.0679102,26
1774408140.0845973,25
1774408140.1020236,25
1774408140.1183565,24
1774408140.13987,24
1774408140.1497736,23
1774408140.1776261,23
1774408140.189423,22
1774408140.2040887,22
1774408140.2249184,21
1774408140.2350483,21
1774408140.2533429,20
1774408140.2677772,20
1774408140.2848895,19
1774408140.304581,19
1774408140.3179104,19
1774408140.3349512,18
1774408140.3523552,18
1774408140.3723538,18
1774408140.3866441,18
1774408140.4006677,17
1774408140.4253678,19
1774408140.4339387,24
1774408140.4526825,32
1774408140.4671628,41
1774408140.484594,54
1774408140.5089183,67
1774408140.516651,79
1774408140.5469565,88
1774408140.5529287,93
1774408140.575936,94
1774408140.5854394,94
1774408140.6080375,92
1774408140.6240845,90
1774408140.6357641,87
1774408140.6623554,85
1774408140.6719434,83
1774408140.689232,81
1774408140.7030778,77
1774408140.726696,74
1774408140.7351236,69
1774408140.7526999,65
1774408140.7807758,61
1774408140.7865076,57
1774408140.8001833,55
1774408140.8190126,53
1774408140.8475142,52
1774408140.8521132,50
1774408140.8715923,49
1774408140.8844914,48
1774408140.9012141,46
1774408140.9181674,44
1774408140.9346535,42
1774408140.949576,40
1774408140.9755275,39
1774408140.9869242,37
1774408141.007507,35
1774408141.0238647,33
1774408141.0395727,32
1774408141.0545237,31
1774408141.0705585,30
1774408141.0925214,29
1774408141.1029189,28
1774408141.1186345,28
1774408141.1410675,27
1774408141.15076,26
1774408141.1679072,26
1774408141.1939871,26
1774408141.2065465,25
1774408141.2197728,24
1774408141.2349772,23
1774408141.25259,23
1774408141.271803,22
1774408141.2849321,21
1774408141.300779,21
1774408141.3167112,20
1774408141.338166,20
1774408141.3538709,20
1774408141.366619,19
1774408141.3847454,19
1774408141.4040353,18
1774408141.4171498,18
1774408141.436115,17
1774408141.4546974,17
1774408141.4753404,16
1774408141.4866664,15
1774408141.501485,14
1774408141.5280378,14
1774408141.5412874,14
1774408141.553725,17
1774408141.5794506,23
1774408141.588696,32
1774408141.6013608,44
1774408141.6235363,57
1774408141.646484,70
1774408141.6525798,80
1774408141.6798527,87
1774408141.684265,90
1774408141.7052197,91
1774408141.717642,89
1774408141.7427182,87
1774408141.7643979,85
1774408141.778719,83
1774408141.8053358,81
1774408141.8053954,79
1774408141.8182933,76
1774408141.8384318,73
1774408141.8613126,69
1774408141.872858,64
1774408141.8867886,60
1774408141.9067497,56
1774408141.9179826,53
1774408141.9347227,50
1774408141.9565306,49
1774408141.967055,48
1774408141.989591,47
1774408142.000466,45
1774408142.0168235,44
1774408142.0347624,42
1774408142.0524602,40
1774408142.0696063,39
1774408142.0846505,36
1774408142.101238,34
1774408142.1260097,32
1774408142.1340656,30
1774408142.1599827,29
1774408142.1671443,27
1774408142.1899753,26
1774408142.205199,25
1774408142.2176461,24
1774408142.2381887,23
1774408142.253987,22
1774408142.2674797,21
1774408142.2932987,20
1774408142.3057094,20
1774408142.3165042,19
1774408142.336738,18
1774408142.3537107,17
1774408142.3701456,16
1774408142.389107,16
1774408142.4033086,15
1774408142.4224734,14
1774408142.4357214,13
1774408142.453261,13
1774408142.4675384,12
1774408142.4936047,12
1774408142.5061612,12
1774408142.5172405,11
1774408142.5328007,11
1774408142.5533776,10
1774408142.5740335,10
1774408142.5839124,9
1774408142.6004193,10
1774408142.617114,13
1774408142.6337118,20
1774408142.6515813,30
1774408142.675135,41
1774408142.6854904,53
1774408142.7013803,65
1774408142.7314675,74
1774408142.744502,79
1774408142.756982,81
1774408142.7679868,80
1774408142.7834327,78
1774408142.8026242,75
1774408142.8170667,73
1774408142.8379583,70
1774408142.859593,68
1774408142.868388,65
1774408142.8895135,62
1774408142.9083138,59
1774408142.9254572,56
1774408142.932769,52
1774408142.9575436,49
1774408142.9671726,47
1774408142.9897318,45
1774408143.0059094,44
1774408143.0206041,44
1774408143.033313,43
1774408143.060422,43
1774408143.0699074,41
1774408143.0852764,40
1774408143.1021812,39
1774408143.127025,37
1774408143.1371465,35
1774408143.1564643,33
1774408143.1662188,31
1774408143.1854699,29
1774408143.2012887,28
1774408143.2190473,27
1774408143.2470238,26
1774408143.2610738,25
1774408143.2698743,25
1774408143.296003,24
1774408143.2999754,23
1774408143.3176603,23
1774408143.3346846,22
1774408143.3507347,22
1774408143.3667102,21
1774408143.3882263,21
1774408143.4020984,20
1774408143.4268584,20
1774408143.4327214,19
1774408143.4563406,19
1774408143.4674342,18
1774408143.4844358,18
1774408143.5167735,18
1774408143.5173497,17
1774408143.5328262,17
1774408143.5530393,17
1774408143.5758355,16
1774408143.5906856,16
1774408143.604415,15
1774408143.6284223,15
1774408143.634493,15
1774408143.660435,16
1774408143.667087,20
1774408143.6869504,28
1774408143.707226,39
1774408143.7244725,51
1774408143.732789,64
1774408143.7512553,76
1774408143.76605,84
1774408143.7854376,89
1774408143.7998903,91
1774408143.8175335,90
1774408143.836138,88
1774408143.8532393,86
1774408143.8660321,84
1774408143.8840592,81
1774408143.9000826,79
1774408143.9250717,76
1774408143.9443736,74
1774408143.957111,70
1774408143.977416,66
1774408143.990157,62
1774408144.0042293,58
1774408144.0298338,55
1774408144.042354,52
1774408144.0559537,50
1774408144.068823,49
1774408144.0862482,47
1774408144.1073782,46
1774408144.1212726,45
1774408144.1340957,44
1774408144.1498675,42
1774408144.1679816,40
1774408144.1874127,38
1774408144.1993654,36
1774408144.2194283,34
1774408144.2363021,32
1774408144.2604449,31
1774408144.277497,29
1774408144.2833593,28
1774408144.2996175,27
1774408144.316778,27
1774408144.3339262,26
1774408144.3514917,25
1774408144.3724236,25
1774408144.3844635,24
1774408144.4011111,24
1774408144.417117,23
1774408144.4377227,22
1774408144.453351,21
1774408144.472496,20
1774408144.497471,19
1774408144.5023704,18
1774408144.5178628,18
1774408144.533221,17
1774408144.5566797,16
1774408144.5711727,15
1774408144.587755,15
1774408144.6011405,14
1774408144.6183743,14
1774408144.6330788,13
1774408144.6512425,13
1774408144.6729922,12
1774408144.6884687,12
1774408144.7114046,12
1774408144.720572,13
1774408144.7384622,17
1774408144.7622967,23
1774408144.776373,33
1774408144.7911472,44
1774408144.8009803,56
1774408144.8319924,68
1774408144.8370368,77
1774408144.8585,82
1774408144.870024,84
1774408144.8849988,84
1774408144.905944,82
1774408144.9222095,79
1774408144.935215,77
1774408144.956778,75
1774408144.969382,73
1774408144.9847145,70
1774408145.001804,67
1774408145.0181942,64
1774408145.0441308,60
1774408145.0630944,56
1774408145.070802,52
1774408145.0923967,49
1774408145.1021605,47
1774408145.1279202,45
1774408145.1412141,44
1774408145.1617842,43
1774408145.1758564,42
1774408145.184319,41
1774408145.2100515,40
1774408145.2258677,38
1774408145.2372913,36
1774408145.2640383,34
1774408145.271289,32
1774408145.2846482,30
1774408145.3039753,29
1774408145.3164163,27
1774408145.3326552,26
1774408145.3571172,25
1774408145.368987,24
1774408145.3840618,23
1774408145.3993137,22
1774408145.4192777,21
1774408145.435272,20
1774408145.4605927,20
1774408145.4660585,19
1774408145.4866905,18
1774408145.5014646,18
1774408145.5246642,17
1774408145.535071,16
1774408145.558834,15
1774408145.567659,15
1774408145.583818,14
1774408145.6044657,14
1774408145.6228473,13
1774408145.6379018,12
1774408145.6511734,12
1774408145.670858,11
1774408145.687216,12
1774408145.7030382,15
1774408145.718931,21
1774408145.7327485,30
1774408145.751124,40
1774408145.7670903,50
1774408145.7829812,60
1774408145.799293,67
1774408145.816465,71
1774408145.8355277,73
1774408145.8630283,73
1774408145.8672764,71
1774408145.8950791,69
1774408145.9110491,67
1774408145.9254897,65
1774408145.9422536,63
1774408145.957434,61
1774408145.9742897,58
1774408145.983946,55
1774408146.004764,52
1774408146.0196712,48
1774408146.0368884,45
1774408146.0513098,43
1774408146.0702367,41
1774408146.0840003,41
1774408146.1006238,40
1774408146.1182044,40
1774408146.1342416,40
1774408146.1526203,39
1774408146.1659474,37
1774408146.1884851,36
1774408146.2106824,34
1774408146.2286243,32
1774408146.2367542,30
1774408146.2616203,28
1774408146.274278,27
1774408146.300184,26
1774408146.3062387,25
1774408146.31637,24
1774408146.3348289,23
1774408146.357293,23
1774408146.3704255,22
1774408146.389268,22
1774408146.4054425,21
1774408146.4172516,20
1774408146.4376287,20
1774408146.4564526,19
1774408146.4694273,18
1774408146.4845939,18
1774408146.5006049,17
1774408146.51653,17
1774408146.532839,16
1774408146.5514448,16
1774408146.5700183,16
1774408146.595884,16
1774408146.6005404,15
1774408146.6284418,15
1774408146.6383727,15
1774408146.6577654,15
1774408146.676517,17
1774408146.691019,22
1774408146.7085514,29
1774408146.724195,38
1774408146.7390468,48
1774408146.751813,58
1774408146.7668557,66
1774408146.7862153,72
1774408146.8023527,75
1774408146.818,75
1774408146.8341775,74
1774408146.860192,73
1774408146.8662517,72
1774408146.898012,70
1774408146.900598,69
1774408146.930194,67
1774408146.9364314,65
1774408146.952679,62
1774408146.9683313,59
1774408146.9908013,55
1774408147.0081336,52
1774408147.0256119,48
1774408147.0531838,46
1774408147.054661,45
1774408147.0680318,44
1774408147.0844972,43
1774408147.1052742,42
1774408147.115854,41
1774408147.1371849,40
1774408147.1532352,38
1774408147.1808164,36
1774408147.185134,35
1774408147.201263,33
1774408147.2228403,31
1774408147.2331064,30
1774408147.2515259,28
1774408147.268562,27
1774408147.2836952,26
1774408147.3003652,25
1774408147.3168912,24
1774408147.3325546,24
1774408147.3506222,23
1774408147.3753955,22
1774408147.3835373,22
1774408147.407333,21
1774408147.4237506,20
1774408147.4394617,19
1774408147.4491909,18
1774408147.4696572,18
1774408147.4873185,17
1774408147.503971,16
1774408147.516367,16
1774408147.5350103,15
1774408147.551063,14
1774408147.5723913,14
1774408147.5828469,13
1774408147.6007957,13
1774408147.6178823,12
1774408147.637357,11
1774408147.6512995,11
1774408147.6703475,10
1774408147.6869907,9
1774408147.7007055,10
1774408147.7229695,13
1774408147.7338567,19
1774408147.7505274,27
1774408147.76776,37
1774408147.7854285,46
1774408147.8102965,55
1774408147.818043,62
1774408147.8351066,67
1774408147.850555,68
1774408147.868017,68
1774408147.886153,67
1774408147.9016516,65
1774408147.9266121,64
1774408147.9344678,62
1774408147.9567955,61
1774408147.9785004,59
1774408147.9894593,57
1774408148.0046706,54
1774408148.0187614,51
1774408148.0366132,48
1774408148.051224,45
1774408148.0685554,43
1774408148.0898685,41
1774408148.1005313,41
1774408148.125618,40
1774408148.1328049,40
1774408148.1592972,40
1774408148.165795,38
1774408148.1896632,37
1774408148.205714,35
1774408148.2220368,34
1774408148.2371967,32
1774408148.25146,30
1774408148.26969,29
1774408148.286616,28
1774408148.3020697,27
1774408148.316731,26
1774408148.333087,25
1774408148.354434,25
1774408148.372685,25
1774408148.3965778,24
1774408148.4069715,24
1774408148.4271116,23
1774408148.4365942,23
1774408148.4521737,23
1774408148.4756136,22
1774408148.491031,22
1774408148.502834,22
1774408148.5265908,21
1774408148.5327713,21
1774408148.5558202,20
1774408148.580458,20
1774408148.5826223,20
1774408148.6151004,19
1774408148.615785,19
1774408148.6424034,20
1774408148.6517107,23
1774408148.6675677,28
1774408148.693558,36
1774408148.699585,44
1774408148.715973,54
1774408148.745573,62
1774408148.763549,68
1774408148.766508,72
1774408148.7844815,73
1774408148.806893,72
1774408148.8264263,71
1774408148.8365562,70
1774408148.8594704,68
1774408148.8755596,67
1774408148.8852289,65
1774408148.9037032,63
1774408148.9179132,60
