timestamp,bvp
1774422003.3833702,30
1774422003.4000688,32
1774422003.416707,37
1774422003.433376,44
1774422003.450075,53
1774422003.4667153,62
1774422003.4833796,69
1774422003.5000594,73
1774422003.516691,74
1774422003.5333865,71
1774422003.5500913,66
1774422003.5667026,60
1774422003.5833757,55
1774422003.6000884,49
1774422003.6169896,45
1774422003.6336768,41
1774422003.6504922,39
1774422003.6679378,36
1774422003.6834426,34
1774422003.7013607,33
1774422003.7181349,33
1774422003.7356985,34
1774422003.7502427,34
1774422003.767165,34
1774422003.783769,34
1774422003.8005104,33
1774422003.8196402,31
1774422003.8370628,29
1774422003.8522906,27
1774422003.8681605,25
1774422003.8834586,23
1774422003.9055932,21
1774422003.9173007,20
1774422003.9342802,19
1774422003.9504397,18
1774422003.967808,17
1774422003.9837282,17
1774422004.0006633,17
1774422004.0176291,17
1774422004.03412,19
1774422004.0505536,25
1774422004.0674827,34
1774422004.083932,42
1774422004.1032276,51
1774422004.1174893,59
1774422004.1335108,64
1774422004.153765,66
1774422004.1675334,62
1774422004.1876047,58
1774422004.2016923,53
1774422004.217894,48
1774422004.2339282,43
1774422004.265583,40
1774422004.2754014,36
1774422004.2904303,32
1774422004.3017006,29
1774422004.3238225,27
1774422004.341097,25
1774422004.3558645,24
1774422004.3675258,24
1774422004.3834617,25
1774422004.4015,26
1774422004.417716,26
1774422004.4338102,26
1774422004.4506304,26
1774422004.4719217,25
1774422004.4843264,23
1774422004.5032082,22
1774422004.51898,20
1774422004.535087,17
1774422004.5499845,15
1774422004.5724235,14
1774422004.584371,12
1774422004.6000633,11
1774422004.623596,10
1774422004.6403205,10
1774422004.6580212,11
1774422004.6741343,14
1774422004.6903183,21
1774422004.7079768,30
1774422004.7200024,40
1774422004.7404735,49
1774422004.7569008,57
1774422004.7743769,62
1774422004.7873867,62
1774422004.8073547,59
1774422004.8198524,54
1774422004.8382773,49
1774422004.852758,44
1774422004.8700929,40
1774422004.8832686,37
1774422004.9024608,33
1774422004.917416,31
1774422004.9335604,29
1774422004.9503157,29
1774422004.973582,29
1774422004.9877772,30
1774422005.00728,31
1774422005.019283,32
1774422005.0402386,33
1774422005.0550992,33
1774422005.066988,32
1774422005.090514,31
1774422005.1069002,29
1774422005.1170146,27
1774422005.1381016,26
1774422005.155961,24
1774422005.1718113,23
1774422005.1878664,22
1774422005.2019746,21
1774422005.2202668,20
1774422005.2341092,19
1774422005.2519305,19
1774422005.268095,18
1774422005.2834227,19
1774422005.30128,23
1774422005.3240607,30
1774422005.341178,39
1774422005.3569512,49
1774422005.367334,60
1774422005.3913429,68
1774422005.4070082,73
1774422005.4177105,73
1774422005.4351413,71
1774422005.4526317,66
1774422005.4694934,61
1774422005.4897752,56
1774422005.50721,52
1774422005.524314,48
1774422005.543684,45
1774422005.5536942,43
1774422005.57364,41
1774422005.5884478,40
1774422005.6076152,40
1774422005.6209252,41
1774422005.6403153,41
1774422005.654574,42
1774422005.6719885,43
1774422005.683567,42
1774422005.7070668,42
1774422005.7177742,40
1774422005.7385402,40
1774422005.7499728,38
1774422005.773792,36
1774422005.790794,35
1774422005.8021832,33
1774422005.8166494,32
1774422005.8388336,30
1774422005.8500428,29
1774422005.8708773,28
1774422005.8869667,26
1774422005.905724,26
1774422005.9189148,25
1774422005.9349608,26
1774422005.9508696,30
1774422005.9669673,37
1774422005.9904616,46
1774422006.007146,57
1774422006.023971,68
1774422006.040246,78
1774422006.0563333,83
1774422006.067939,84
1774422006.083482,82
1774422006.107094,77
1774422006.1201296,72
1774422006.1410306,66
1774422006.1571052,61
1774422006.1719272,57
1774422006.1880245,53
1774422006.2038553,50
1774422006.219829,48
1774422006.2360544,46
1774422006.253991,46
1774422006.2678976,45
1774422006.2833328,45
1774422006.3070703,46
1774422006.3237753,46
1774422006.3405113,45
1774422006.3529558,44
1774422006.3736415,43
1774422006.3834443,41
1774422006.407111,40
1774422006.416878,37
1774422006.437,35
1774422006.4535606,34
1774422006.4718654,32
1774422006.4881048,30
1774422006.5039232,29
1774422006.5170174,28
1774422006.5340958,27
1774422006.5510378,26
1774422006.5680907,25
1774422006.584013,24
1774422006.6006432,23
1774422006.621704,23
1774422006.6399405,26
1774422006.6528728,32
1774422006.6690278,40
1774422006.6861637,51
1774422006.7045333,63
1774422006.7215493,74
1774422006.7402263,82
1774422006.7578773,85
1774422006.7712638,83
1774422006.7886026,79
1774422006.8056989,73
1774422006.8216946,67
1774422006.8376436,61
1774422006.8518016,56
1774422006.8754003,52
1774422006.8857567,48
1774422006.9078703,46
1774422006.9176362,44
1774422006.9337847,43
1774422006.9584208,43
1774422006.9678473,43
1774422006.9902792,44
1774422007.00553,44
1774422007.0237114,44
1774422007.0457842,43
1774422007.0616298,41
1774422007.0754437,40
1774422007.0839913,38
1774422007.1077,36
1774422007.1250243,33
1774422007.1366134,31
1774422007.1557028,29
1774422007.1761124,28
1774422007.1889076,26
1774422007.2056084,25
1774422007.2201967,24
1774422007.2376633,23
1774422007.2519367,22
1774422007.2688937,21
1774422007.2832494,21
1774422007.303189,20
1774422007.3168194,19
1774422007.3332758,19
1774422007.350094,20
1774422007.3746924,23
1774422007.3876696,30
1774422007.406955,39
1774422007.4192362,50
1774422007.4347382,61
1774422007.4522128,72
1774422007.4680479,79
1774422007.4904485,81
1774422007.5012984,79
1774422007.5228336,74
1774422007.5400448,68
1774422007.5549026,62
1774422007.5707438,56
1774422007.587163,51
1774422007.6147532,46
1774422007.6236508,43
1774422007.641486,40
1774422007.6500895,40
1774422007.6704762,39
1774422007.6882982,40
1774422007.706993,40
1774422007.7167037,41
1774422007.7402763,42
1774422007.7519145,42
1774422007.7740574,41
1774422007.7849476,40
1774422007.8069556,38
1774422007.8249395,36
1774422007.840221,34
1774422007.858286,32
1774422007.8736093,30
1774422007.890114,28
1774422007.9063091,26
1774422007.9236531,25
1774422007.9332068,24
1774422007.9581804,23
1774422007.9708946,22
1774422007.9891405,21
1774422008.0024517,21
1774422008.01673,20
1774422008.0390124,20
1774422008.050212,19
1774422008.0736635,19
1774422008.0847576,19
1774422008.108175,18
1774422008.1166055,19
1774422008.145328,22
1774422008.149813,29
1774422008.1718335,38
1774422008.193865,49
1774422008.2071557,61
1774422008.2249293,73
1774422008.2412987,81
1774422008.2549267,84
1774422008.2732954,84
1774422008.28919,80
1774422008.3079176,74
1774422008.319814,68
1774422008.3372598,62
1774422008.353525,56
1774422008.369371,51
1774422008.3897734,47
1774422008.402442,45
1774422008.4177275,43
1774422008.4335074,43
1774422008.4508572,44
1774422008.4739099,45
1774422008.4832385,46
1774422008.5023913,47
1774422008.517174,47
1774422008.5334527,46
1774422008.5502877,45
1774422008.5746813,43
1774422008.5910916,41
1774422008.6075768,39
1774422008.6227434,37
1774422008.6386817,35
1774422008.65104,33
1774422008.6710925,31
1774422008.687873,29
1774422008.7015665,28
1774422008.7165613,27
1774422008.7348125,26
1774422008.7567976,25
1774422008.7667482,24
1774422008.7901924,23
1774422008.806986,23
1774422008.819364,22
1774422008.845234,22
1774422008.852936,22
1774422008.87656,21
1774422008.8842897,21
1774422008.9087,21
1774422008.920426,21
1774422008.9408078,23
1774422008.9502037,28
1774422008.9723036,37
1774422008.990233,47
1774422009.0091605,60
1774422009.0165226,73
1774422009.0359895,84
1774422009.0522883,90
1774422009.0682456,91
1774422009.0838892,89
1774422009.107153,83
1774422009.120845,77
1774422009.1404357,70
1774422009.1569915,64
1774422009.1789296,58
1774422009.1870944,53
1774422009.2118962,50
1774422009.2198849,47
1774422009.2403696,47
1774422009.2512093,47
1774422009.2745461,48
1774422009.2833257,49
1774422009.3065925,50
1774422009.3220334,51
1774422009.3385108,50
1774422009.3549566,49
1774422009.3735452,47
1774422009.3879862,45
1774422009.4029186,43
1774422009.4186928,40
1774422009.4345217,39
1774422009.4507337,37
1774422009.474891,34
1774422009.488429,32
1774422009.5013378,31
1774422009.5251036,29
1774422009.5392013,28
1774422009.555189,26
1774422009.5709782,26
1774422009.5855372,25
1774422009.6095908,24
1774422009.6204634,24
1774422009.6346703,23
1774422009.6499753,23
1774422009.6727686,23
1774422009.6860662,23
1774422009.7076077,23
1774422009.719148,22
1774422009.7402759,22
1774422009.7512562,25
1774422009.7732952,30
1774422009.7884843,39
1774422009.7998388,50
1774422009.823642,63
1774422009.837481,76
1774422009.8568525,87
1774422009.8755062,93
1774422009.8903801,95
1774422009.9031427,92
1774422009.916859,87
1774422009.9335008,81
1774422009.949998,74
1774422009.9734032,67
1774422009.986127,62
1774422010.007052,57
1774422010.0200653,54
1774422010.0388176,52
1774422010.0513225,51
1774422010.074089,51
1774422010.0831711,52
1774422010.1070447,54
1774422010.1173465,55
1774422010.1406481,55
1774422010.1501284,55
1774422010.1668851,53
1774422010.1917224,51
1774422010.2069106,49
1774422010.2175925,46
1774422010.235192,43
1774422010.250805,40
1774422010.2735436,39
1774422010.2836123,36
1774422010.3001301,34
1774422010.3208866,33
1774422010.3405762,31
1774422010.3585877,30
1774422010.3715823,28
1774422010.3851433,27
1774422010.4068718,27
1774422010.4185317,26
1774422010.438797,25
1774422010.4521458,25
1774422010.4708982,25
1774422010.4842994,24
1774422010.5035195,24
1774422010.516331,24
1774422010.5402596,23
1774422010.5508635,24
1774422010.5668893,27
1774422010.591118,34
1774422010.607075,43
1774422010.6174178,56
1774422010.6402445,70
1774422010.6600175,83
1774422010.6738107,93
1774422010.6837072,99
1774422010.7071145,100
1774422010.7195234,98
1774422010.7362163,92
1774422010.7520285,86
1774422010.7755089,79
1774422010.7869215,72
1774422010.8069162,66
1774422010.8185732,62
1774422010.834881,58
1774422010.850888,56
1774422010.8664732,54
1774422010.8833284,54
1774422010.9076557,54
1774422010.9177768,55
1774422010.9401035,55
1774422010.9505103,55
1774422010.968504,54
1774422010.9883657,53
1774422011.0110686,51
1774422011.0178716,48
1774422011.0404904,45
1774422011.057141,42
1774422011.0738428,41
1774422011.0903423,39
1774422011.1069481,37
1774422011.1227627,34
1774422011.1388254,32
1774422011.155015,31
1774422011.1710794,28
1774422011.1864183,27
1774422011.2001677,26
1774422011.2171185,25
1774422011.2345834,24
1774422011.2508929,24
1774422011.26991,23
1774422011.2869277,23
1774422011.3087118,22
1774422011.3236485,22
1774422011.3454394,22
1774422011.3569467,21
1774422011.3736236,22
1774422011.3845432,25
1774422011.4051561,32
1774422011.417602,41
1774422011.4335468,55
1774422011.4563289,69
1774422011.472452,83
1774422011.4888086,94
1774422011.5044396,99
1774422011.5205016,100
1774422011.5364294,96
1774422011.5525317,91
1774422011.5685017,85
1774422011.5845008,79
1774422011.6005201,73
1774422011.6229286,68
1774422011.6385307,64
1774422011.6515563,60
1774422011.6736326,58
1774422011.683879,56
1774422011.7083895,54
1774422011.7187436,54
1774422011.737082,54
1774422011.75888,53
1774422011.7711613,53
1774422011.7902892,52
1774422011.800334,50
1774422011.816567,47
1774422011.8383574,45
1774422011.849561,42
1774422011.8754494,40
1774422011.8864074,36
1774422011.9026465,34
1774422011.9184628,31
1774422011.9357705,29
1774422011.9525566,27
1774422011.975776,26
1774422011.988047,24
1774422012.0018098,23
1774422012.018803,22
1774422012.041971,22
1774422012.057406,21
1774422012.078005,20
1774422012.0855563,20
1774422012.1086628,19
1774422012.11643,19
1774422012.1403441,18
1774422012.157838,18
1774422012.173094,18
1774422012.1844327,22
1774422012.2059362,29
1774422012.2220316,39
1774422012.2388294,51
1774422012.2524836,66
1774422012.2708843,79
1774422012.2881522,89
1774422012.307354,94
1774422012.3204193,94
1774422012.3342125,91
1774422012.3503585,85
1774422012.3692179,79
1774422012.3906047,73
1774422012.409457,68
1774422012.418716,64
1774422012.4368453,60
1774422012.4501865,56
1774422012.4763281,54
1774422012.483881,52
1774422012.5068698,50
1774422012.525251,50
1774422012.5404618,49
1774422012.551206,49
1774422012.5735428,48
1774422012.5865054,46
1774422012.600995,44
1774422012.616653,42
1774422012.643418,40
1774422012.6527143,38
1774422012.6685846,35
1774422012.6833305,32
1774422012.699899,30
1774422012.7167902,28
1774422012.733615,26
1774422012.751488,24
1774422012.7705045,23
1774422012.787706,22
1774422012.8050902,20
1774422012.8191812,20
1774422012.8419774,19
1774422012.8536222,18
1774422012.8736107,18
1774422012.8837204,17
1774422012.9060779,17
1774422012.9162357,18
1774422012.9380717,23
1774422012.9521542,31
1774422012.9735548,42
1774422012.984563,55
1774422013.0022562,69
1774422013.0174952,80
1774422013.033749,88
1774422013.0504537,91
1774422013.067074,90
1774422013.0846493,85
1774422013.099985,80
1774422013.1191907,74
1774422013.1387875,69
1774422013.1520638,64
1774422013.171114,60
1774422013.1860716,57
1774422013.2012568,54
1774422013.2195773,51
1774422013.2390172,50
1774422013.2503,49
1774422013.266517,48
1774422013.2886817,47
1774422013.3045833,46
1774422013.317084,45
1774422013.33646,44
1774422013.3526762,42
1774422013.3686118,40
1774422013.383719,37
1774422013.4084983,34
1774422013.4161892,32
1774422013.4338288,29
1774422013.453668,27
1774422013.473553,25
1774422013.4904094,24
1774422013.5081584,23
1774422013.5225074,21
1774422013.5383384,20
1774422013.5547962,19
1774422013.5740433,19
1774422013.591798,18
1774422013.6070614,17
1774422013.619382,16
1774422013.6395733,16
1774422013.6504202,17
1774422013.6720896,20
1774422013.6867507,28
1774422013.7014644,38
1774422013.7176142,51
1774422013.734704,65
1774422013.7495492,78
1774422013.7713575,87
1774422013.7902775,92
1774422013.8069756,92
1774422013.8212078,89
1774422013.8416927,84
1774422013.854675,78
1774422013.8732169,73
1774422013.890382,68
1774422013.9063697,64
1774422013.9231503,60
1774422013.9392028,56
1774422013.955226,54
1774422013.9711528,51
1774422013.987336,49
1774422014.0032945,48
1774422014.0193326,47
1774422014.0401669,47
1774422014.0544527,46
1774422014.0671773,44
1774422014.0831254,42
1774422014.1079323,40
1774422014.1169407,38
1774422014.140762,36
1774422014.158037,33
1774422014.179572,30
1774422014.183066,28
1774422014.2041168,26
1774422014.2237408,24
1774422014.2431657,23
1774422014.2589364,22
1774422014.2750988,21
1774422014.2827556,20
1774422014.307469,19
1774422014.323105,18
1774422014.3394203,17
1774422014.3517978,17
1774422014.3714602,16
1774422014.387273,16
1774422014.4033318,15
1774422014.416612,15
1774422014.4383945,15
1774422014.4510741,15
1774422014.4672506,17
1774422014.4833999,23
1774422014.5150988,33
1774422014.5161157,45
1774422014.5402327,60
1774422014.5530744,76
1774422014.579197,89
1774422014.5895903,97
1774422014.6069496,100
1774422014.620298,99
1774422014.64036,94
1774422014.6497545,89
1774422014.6680067,85
1774422014.687563,80
1774422014.7062259,76
1774422014.7169337,71
1774422014.7382407,67
1774422014.7503188,63
1774422014.7685308,59
1774422014.7836974,56
1774422014.8022091,53
1774422014.818197,51
1774422014.834251,50
1774422014.8510144,48
1774422014.8665535,47
1774422014.8834991,45
1774422014.9142103,43
1774422014.9160466,41
1774422014.9378843,39
1774422014.9585028,36
1774422014.9692416,33
1774422014.9874847,31
1774422015.0011442,28
1774422015.0209289,26
1774422015.0383067,24
1774422015.0542614,23
1774422015.0731523,22
1774422015.090299,20
1774422015.1069016,19
1774422015.1204598,18
1774422015.1373954,17
1774422015.152777,16
1774422015.1686566,15
1774422015.1884017,14
1774422015.2004495,14
1774422015.220542,13
1774422015.2328124,13
1774422015.250856,12
1774422015.2735786,11
1774422015.2878354,11
1774422015.3069677,13
1774422015.320344,18
1774422015.3438811,28
1774422015.3494608,40
1774422015.3746724,56
1774422015.384672,71
1774422015.4069676,84
1774422015.4183373,92
1774422015.435519,96
1774422015.456837,95
1774422015.470834,91
1774422015.4866583,86
1774422015.5026898,81
1774422015.518938,76
1774422015.5405416,72
1774422015.5506663,68
1774422015.5668647,64
1774422015.5902693,60
1774422015.601178,56
1774422015.619669,52
1774422015.6402097,49
1774422015.65191,46
1774422015.6778362,45
1774422015.6832795,43
1774422015.709665,41
1774422015.7227235,40
1774422015.740428,39
1774422015.7567306,37
1774422015.7666738,34
1774422015.789376,31
1774422015.8001533,28
1774422015.8203154,25
1774422015.837483,23
1774422015.8535705,20
1774422015.869382,18
1774422015.885396,17
1774422015.901422,15
1774422015.9177284,14
1774422015.9335248,13
1774422015.958172,12
1774422015.9714603,11
1774422015.991164,10
1774422016.0086331,10
1774422016.0199988,9
1774422016.040518,9
1774422016.0520554,9
1774422016.0735364,8
1774422016.0851214,8
1774422016.1084821,7
1774422016.1213772,8
1774422016.1336737,12
1774422016.1509821,20
1774422016.1715016,31
1774422016.1873534,44
1774422016.206963,59
1774422016.2175112,73
1774422016.2437992,82
1774422016.2514799,87
1774422016.2834342,87
1774422016.2834897,84
1774422016.3016756,79
1774422016.323654,74
1774422016.3372905,70
1774422016.358149,66
1774422016.3679786,62
1774422016.3945663,58
1774422016.3993804,55
1774422016.4167445,51
1774422016.4365387,48
1774422016.452968,46
1774422016.473636,45
1774422016.485728,43
1774422016.5081687,42
1774422016.5201595,41
1774422016.5380702,40
1774422016.5508282,39
1774422016.5698888,36
1774422016.5828106,34
1774422016.6097732,31
1774422016.6170468,29
1774422016.6338103,26
1774422016.658198,24
1774422016.677423,22
1774422016.6904428,20
1774422016.7068858,18
1774422016.723502,17
1774422016.7395952,16
1774422016.7514396,15
1774422016.766467,14
1774422016.7915127,13
1774422016.808012,12
1774422016.8233325,12
1774422016.8403084,11
1774422016.8519778,11
1774422016.8713634,10
1774422016.8887753,10
1774422016.9043732,9
1774422016.920472,10
1774422016.9363468,12
1774422016.9516265,19
1774422016.9715335,29
1774422016.982648,40
1774422017.000575,54
1774422017.0237744,68
1774422017.0464518,78
1774422017.0540326,83
1774422017.0716527,84
1774422017.090281,82
1774422017.1070733,77
1774422017.1236606,72
1774422017.1383417,67
1774422017.1583214,62
1774422017.1711428,58
1774422017.1905167,55
1774422017.2039092,52
1774422017.2223504,48
1774422017.2383122,46
1774422017.2516642,44
1774422017.2690163,42
1774422017.2859118,41
1774422017.3025506,40
1774422017.3162022,40
1774422017.3407705,38
1774422017.3521326,37
1774422017.3716748,35
1774422017.3840482,33
1774422017.4004989,30
1774422017.4165359,27
1774422017.438602,25
1774422017.457169,23
1774422017.4692812,20
1774422017.4910731,19
1774422017.5069277,17
1774422017.523659,16
1774422017.5401778,15
1774422017.5518785,14
1774422017.5713153,13
1774422017.5840604,12
1774422017.6039631,11
1774422017.6199536,10
1774422017.6368425,10
1774422017.6522284,9
1774422017.6679282,9
1774422017.6831527,9
1774422017.6999898,8
1774422017.715901,8
1774422017.73612,8
1774422017.7492776,7
1774422017.7737584,9
1774422017.7861204,13
1774422017.8071887,22
1774422017.8232565,35
1774422017.8403459,49
1774422017.8494284,64
1774422017.8714309,78
1774422017.8857532,87
1774422017.9035528,91
1774422017.9189732,91
1774422017.9361038,87
1774422017.951455,83
1774422017.967781,78
1774422017.9840205,74
1774422018.0039961,70
1774422018.0230641,66
1774422018.0383716,63
1774422018.0511668,59
1774422018.072704,56
1774422018.0897777,53
1774422018.1000936,51
1774422018.1169097,49
1774422018.1402338,47
1774422018.153662,45
1774422018.1733706,44
1774422018.1858864,43
1774422018.214827,41
1774422018.2166793,40
1774422018.2374172,38
1774422018.2534509,35
1774422018.2735608,32
1774422018.2842417,29
1774422018.3012352,26
1774422018.3185666,24
1774422018.3421504,22
1774422018.3569438,20
1774422018.371333,19
1774422018.3907137,17
1774422018.4027553,16
1774422018.4163625,15
1774422018.4375312,14
1774422018.45756,13
1774422018.4753594,12
1774422018.482832,11
1774422018.507489,10
1774422018.5159025,10
1774422018.534541,9
1774422018.5530846,9
1774422018.571475,9
1774422018.5845847,8
1774422018.6024506,8
1774422018.6185772,7
1774422018.6328664,9
1774422018.6570063,14
1774422018.6664875,22
1774422018.6921494,35
1774422018.7007897,48
1774422018.7243443,63
1774422018.7392237,75
1774422018.757191,84
1774422018.7715433,87
1774422018.788415,86
1774422018.8048146,82
1774422018.823613,77
1774422018.840245,71
1774422018.8509357,67
1774422018.8683188,62
1774422018.8831491,58
1774422018.902637,55
1774422018.915884,52
1774422018.9374316,49
1774422018.9501586,46
1774422018.9659534,44
1774422018.9829073,42
1774422019.00109,41
1774422019.018168,40
1774422019.0446978,40
1774422019.0563095,38
1774422019.0730765,37
1774422019.087943,35
1774422019.1069553,32
1774422019.1171908,30
1774422019.1338792,27
1774422019.1571596,24
1774422019.171242,22
1774422019.1881719,20
1774422019.2042909,18
1774422019.223105,17
1774422019.2391565,16
1774422019.2494025,14
1774422019.2711065,13
1774422019.2829888,12
1774422019.3030066,11
1774422019.315958,10
1774422019.336127,9
1774422019.3569431,9
1774422019.3665988,8
1774422019.386514,8
1774422019.4070668,8
1774422019.4170036,7
1774422019.4349294,7
1774422019.4538395,7
1774422019.4701452,6
1774422019.4865484,7
1774422019.5069578,10
1774422019.524747,17
1774422019.5377572,27
1774422019.5569084,40
1774422019.5695066,53
1774422019.5888686,65
1774422019.6037848,75
1774422019.6209593,79
1774422019.6417818,79
1774422019.6528742,76
1774422019.6707525,71
1774422019.683798,65
1774422019.7009754,60
1774422019.716406,55
1774422019.732928,51
1774422019.7493696,48
1774422019.7664506,45
1774422019.7828581,43
1774422019.7997057,41
1774422019.8162267,40
1774422019.8368797,40
1774422019.858258,39
1774422019.875204,38
1774422019.891995,38
1774422019.9017298,36
1774422019.923579,35
1774422019.9404516,33
1774422019.9558764,31
1774422019.9719396,28
1774422019.9844437,26
1774422020.0038478,23
1774422020.0177455,21
1774422020.035827,20
1774422020.0519063,18
1774422020.0677688,16
1774422020.0839384,15
1774422020.0999792,14
1774422020.123582,13
1774422020.135488,12
1774422020.1528542,12
1774422020.1746037,11
1774422020.1862109,10
1774422020.2071943,10
1774422020.221551,10
1774422020.2407537,9
1774422020.2556825,9
1774422020.2736022,9
1774422020.2888064,9
1774422020.3069308,8
1774422020.318211,8
1774422020.3349226,8
1774422020.3518336,8
1774422020.3678133,10
1774422020.3832433,16
1774422020.400476,25
1774422020.4189918,37
1774422020.438508,50
1774422020.4521177,63
1774422020.4737475,74
1774422020.4893327,81
1774422020.5022705,82
1774422020.515762,81
1774422020.5331914,76
1774422020.549169,71
1774422020.5727084,66
1774422020.5871887,62
1774422020.6059337,57
1774422020.6212633,54
1774422020.6371737,51
1774422020.653416,48
1774422020.6712463,46
1774422020.6852312,44
1774422020.7012649,42
1774422020.7173076,41
1774422020.7329633,40
1774422020.758025,40
1774422020.775947,40
1774422020.7929313,38
1774422020.8084667,37
1774422020.819523,35
1774422020.8404667,32
1774422020.8532126,30
1774422020.8738055,28
1774422020.8877878,25
1774422020.9032211,23
1774422020.915747,22
1774422020.9369779,20
1774422020.954289,19
1774422020.968784,18
1774422020.984703,17
1774422021.0008993,16
1774422021.0179374,15
1774422021.0327573,14
1774422021.056604,13
1774422021.0677648,13
1774422021.0904646,12
1774422021.1083348,12
1774422021.1236584,11
1774422021.1405249,11
1774422021.157941,11
1774422021.1658168,11
1774422021.1906173,10
1774422021.2044768,10
1774422021.2226837,10
1774422021.2353547,10
1774422021.2549572,13
1774422021.2708383,19
1774422021.2831702,29
1774422021.299958,41
1774422021.3157408,55
1774422021.3356726,69
1774422021.3501165,80
1774422021.3660264,86
1774422021.3857353,87
1774422021.4022295,85
1774422021.418881,80
1774422021.4355257,75
1774422021.4528708,69
1774422021.4735637,64
1774422021.4902365,60
1774422021.5016093,56
1774422021.5185637,53
1774422021.533344,51
1774422021.55708,49
1774422021.570438,47
1774422021.5895176,47
1774422021.6051788,46
1774422021.6210282,45
1774422021.6359904,45
1774422021.6525295,44
1774422021.6674604,43
1774422021.683583,41
1774422021.6996133,40
1774422021.715728,37
1774422021.7402892,35
1774422021.7563574,33
1774422021.7700408,30
1774422021.7847416,28
1774422021.8069284,26
1774422021.817877,25
1774422021.842092,23
1774422021.8523734,22
1774422021.8754768,21
1774422021.8915517,20
1774422021.901373,19
1774422021.923528,18
1774422021.9383764,18
1774422021.955357,17
1774422021.9703312,17
1774422021.986523,17
1774422022.0024452,16
1774422022.018406,16
1774422022.0347428,16
1774422022.0510068,15
1774422022.0664396,15
1774422022.0825987,15
1774422022.1028285,15
1774422022.1185694,17
1774422022.1462653,23
1774422022.149009,33
1774422022.1679616,44
1774422022.186895,59
1774422022.2060544,72
1774422022.2250507,83
1774422022.242443,90
1774422022.2531743,92
1774422022.2736142,89
1774422022.2887607,84
1774422022.3060577,78
1774422022.321984,72
1774422022.3381402,67
1774422022.3540409,62
1774422022.3702965,58
1774422022.3916426,55
1774422022.4016707,53
1774422022.4176528,51
1774422022.43414,50
1774422022.451317,49
1774422022.472134,49
1774422022.4825134,49
1774422022.5074327,49
1774422022.515645,48
1774422022.540315,47
1774422022.5543897,45
1774422022.5854013,43
1774422022.5856693,40
1774422022.609019,38
1774422022.6249502,35
1774422022.6402812,33
1774422022.657061,30
1774422022.6732469,29
1774422022.6860738,27
1774422022.7005007,26
1774422022.7209952,25
1774422022.7410898,24
1774422022.753097,23
1774422022.7717206,22
1774422022.7945318,21
1774422022.8016589,20
1774422022.8170805,20
1774422022.835027,19
1774422022.8568332,19
1774422022.873789,19
1774422022.882456,19
1774422022.9103107,19
1774422022.9172962,18
1774422022.9439366,18
1774422022.9501352,18
1774422022.9760232,20
1774422022.991407,26
1774422023.000613,36
1774422023.0222223,48
1774422023.032744,62
1774422023.0535712,77
1774422023.070925,89
1774422023.087061,96
1774422023.1016095,98
1774422023.118944,97
1774422023.133558,92
1774422023.1511188,87
1774422023.1706514,82
1774422023.18382,76
1774422023.203108,71
1774422023.2236981,67
1774422023.2367814,63
1774422023.2603588,60
1774422023.273743,57
1774422023.2828617,55
1774422023.306928,55
1774422023.3156068,54
1774422023.333627,54
1774422023.3497295,53
1774422023.3736126,52
1774422023.384738,51
1774422023.4007933,49
1774422023.4172716,46
1774422023.4375546,43
1774422023.454025,40
1774422023.4699368,39
1774422023.4831555,36
1774422023.5070362,34
1774422023.5215077,31
1774422023.533244,29
1774422023.5491836,28
1774422023.5711358,26
1774422023.595967,25
1774422023.604941,24
1774422023.617875,23
1774422023.6372256,23
1774422023.6569433,22
1774422023.6685946,22
1774422023.6834996,21
1774422023.707005,20
1774422023.7155604,20
1774422023.735658,19
1774422023.7552528,21
1774422023.771214,26
1774422023.7874181,35
1774422023.802169,46
1774422023.818677,60
1774422023.8341615,75
1774422023.8555229,87
1774422023.866339,95
1774422023.888025,98
1774422023.909138,97
1774422023.916355,93
1774422023.94248,87
1774422023.9529657,81
1774422023.974019,75
1774422023.9861977,70
1774422024.0030384,66
1774422024.0235195,62
1774422024.035346,58
1774422024.0512054,56
1774422024.073254,53
1774422024.0837042,52
1774422024.1068485,51
1774422024.1178076,50
1774422024.1377661,49
1774422024.1503477,48
1774422024.169682,46
1774422024.1836677,44
1774422024.2068655,42
1774422024.2158167,40
1774422024.2359438,37
1774422024.2489545,34
1774422024.2658174,31
1774422024.2873461,29
1774422024.300791,26
1774422024.3214438,24
1774422024.3332992,23
1774422024.3546581,21
1774422024.3750184,20
1774422024.3905945,18
1774422024.4034448,17
1774422024.4160407,16
1774422024.433852,15
1774422024.4646006,15
1774422024.4657383,14
1774422024.48351,15
1774422024.5133033,19
1774422024.515975,27
1774422024.5469072,38
1774422024.55721,50
1774422024.5693073,64
1774422024.5849066,77
1774422024.6065907,85
1774422024.6168146,89
1774422024.64311,89
1774422024.6501954,85
1774422024.6719031,79
1774422024.6915524,73
1774422024.7072709,67
1774422024.7236874,62
1774422024.739807,57
1774422024.7568965,54
1774422024.773857,51
1774422024.7851465,48
1774422024.8071468,47
1774422024.8231997,46
1774422024.8353431,45
1774422024.854248,45
1774422024.8702445,44
1774422024.8884048,44
1774422024.902436,42
1774422024.9174504,40
1774422024.934162,39
1774422024.949561,36
1774422024.969003,33
1774422024.9864674,30
1774422024.9996533,28
1774422025.021402,25
1774422025.040213,23
1774422025.0569577,21
1774422025.067288,19
1774422025.0918958,18
1774422025.106944,17
1774422025.1196535,16
1774422025.1341057,15
1774422025.1571054,14
1774422025.1716766,13
1774422025.1837945,13
1774422025.1993997,16
1774422025.2269504,23
1774422025.2372482,33
1774422025.2495437,45
1774422025.2735767,59
1774422025.2830913,71
1774422025.3016253,80
1774422025.3156207,85
1774422025.340685,85
1774422025.3569226,81
1774422025.373689,76
1774422025.3821955,70
1774422025.4064128,64
1774422025.4172175,58
1774422025.434391,54
1774422025.450451,50
1774422025.4693618,46
1774422025.4903207,44
1774422025.507794,43
1774422025.5178347,42
1774422025.537547,41
1774422025.5566547,41
1774422025.5725582,41
1774422025.5872273,40
1774422025.6031027,39
1774422025.620397,38
1774422025.6359076,35
1774422025.6524947,33
1774422025.6677747,30
1774422025.6832123,28
1774422025.7001464,25
1774422025.7155104,23
1774422025.7327645,22
1774422025.7488284,20
1774422025.765505,19
1774422025.7843518,18
1774422025.806963,17
1774422025.8172717,16
1774422025.8381681,15
1774422025.8542264,15
1774422025.8747456,14
1774422025.8866403,14
1774422025.907271,13
1774422025.918993,14
1774422025.9394655,17
1774422025.955447,25
1774422025.9716325,37
1774422025.9873204,49
1774422026.003297,64
1774422026.0192707,77
1774422026.0349367,87
1774422026.0511782,91
1774422026.0673683,91
1774422026.0855553,87
1774422026.1058505,82
1774422026.1154728,76
1774422026.1378837,71
1774422026.157363,66
1774422026.171621,62
1774422026.1904492,58
1774422026.2110844,55
1774422026.223636,52
1774422026.2424161,50
1774422026.2496,48
1774422026.2713718,47
1774422026.289365,46
1774422026.3053513,45
1774422026.3183084,44
1774422026.3375802,42
1774422026.3531096,40
1774422026.3693166,39
1774422026.3853095,36
1774422026.4050453,33
1774422026.4169815,29
1774422026.433544,27
1774422026.450345,25
1774422026.472074,23
1774422026.4880748,21
1774422026.4994054,20
1774422026.5165858,19
1774422026.5380728,18
1774422026.5492122,17
1774422026.5735466,16
1774422026.5820773,15
1774422026.599636,15
1774422026.615554,14
1774422026.6402917,14
1774422026.655336,18
1774422026.6733325,26
1774422026.6836214,38
1774422026.704332,50
1774422026.7203963,65
1774422026.736133,78
1774422026.7520285,87
1774422026.766951,91
1774422026.7836661,90
1774422026.7992043,86
1774422026.8258674,81
1774422026.8403192,75
1774422026.8515472,70
1774422026.8686683,64
1774422026.8824396,60
1774422026.911042,55
1774422026.9155595,52
1774422026.940352,49
1774422026.948763,47
1774422026.9685833,46
1774422026.9903045,44
1774422027.0046582,44
1774422027.02309,43
1774422027.032718,42
1774422027.054733,40
1774422027.067809,39
1774422027.0866053,37
1774422027.1022975,34
1774422027.1167703,31
1774422027.1347363,28
1774422027.1507084,26
1774422027.1670575,24
1774422027.1834676,22
1774422027.2031312,20
1774422027.2180798,19
1774422027.2341065,18
1774422027.2489142,17
1774422027.2678359,16
1774422027.2833502,16
1774422027.3046281,15
1774422027.3168259,15
1774422027.3401997,16
1774422027.35374,20
1774422027.3810751,29
1774422027.3856027,40
1774422027.4068341,53
1774422027.416613,68
1774422027.434663,80
1774422027.4569302,89
1774422027.4741051,92
1774422027.4850435,90
1774422027.502073,85
1774422027.5160704,79
1774422027.5337033,72
1774422027.5541112,65
1774422027.5677428,60
1774422027.5864644,55
1774422027.603504,51
1774422027.6212306,48
1774422027.6361423,45
1774422027.6606226,44
1774422027.6678512,43
1774422027.6902347,43
1774422027.7027004,42
1774422027.7190695,41
1774422027.7396827,40
1774422027.7521741,40
1774422027.7717755,38
1774422027.7880204,35
1774422027.8050117,32
1774422027.8154821,30
1774422027.8358479,27
1774422027.8517447,25
1774422027.8677683,23
1774422027.8897388,21
1774422027.8996952,19
1774422027.9158256,18
1774422027.9391096,17
1774422027.956811,16
1774422027.968524,15
1774422027.9873903,14
1774422028.0038574,14
1774422028.027909,13
1774422028.0329912,15
1774422028.0588458,20
1774422028.0669153,29
1774422028.0851574,41
1774422028.1049957,55
1774422028.115342,70
1774422028.1328092,82
1774422028.1582592,90
1774422028.1727567,92
1774422028.185963,89
1774422028.2066472,84
1774422028.2175202,77
1774422028.237774,70
1774422028.2492447,63
1774422028.2666118,57
1774422028.2827084,53
1774422028.3070164,49
1774422028.3163638,46
1774422028.3344445,44
1774422028.3551311,43
1774422028.3713005,43
1774422028.3916557,43
1774422028.3996043,43
1774422028.4160304,42
1774422028.4349742,41
1774422028.4512665,40
1774422028.4667752,38
1774422028.4885828,36
1774422028.5046797,33
1774422028.515347,30
1774422028.5383494,28
1774422028.557191,26
1774422028.5676868,24
1774422028.5888424,22
1774422028.6034675,20
1774422028.615638,19
1774422028.634705,18
1774422028.654277,17
1774422028.6687741,16
1774422028.690401,16
1774422028.7026606,15
1774422028.7188573,14
1774422028.7399874,14
1774422028.756979,17
1774422028.7711496,23
1774422028.7874298,33
1774422028.8030624,45
1774422028.8226645,60
1774422028.836001,74
1774422028.8486211,85
1774422028.8708172,91
1774422028.8868604,92
1774422028.9001215,89
1774422028.9182553,82
1774422028.9342673,75
1774422028.9516938,67
1774422028.9662187,61
1774422028.9822266,55
1774422028.9991386,50
1774422029.0247293,46
1774422029.040416,44
1774422029.0582607,43
1774422029.073763,43
1774422029.0916595,43
1774422029.1072457,44
1774422029.1255012,44
1774422029.140212,43
1774422029.1501338,42
1774422029.1736512,40
1774422029.1902082,38
1774422029.2045562,35
1774422029.2179832,32
1774422029.233823,29
1774422029.2559638,26
1774422029.2682908,24
1774422029.2821789,22
1774422029.3001916,20
1774422029.3156533,19
1774422029.3357,17
1774422029.3485878,16
1774422029.3779042,16
1774422029.3892593,15
1774422029.40306,14
1774422029.4168081,14
1774422029.4328206,13
1774422029.4679475,14
1774422029.4737024,17
1774422029.4902854,25
1774422029.5072236,36
1774422029.5170686,50
1774422029.539122,65
1774422029.5550942,79
1774422029.5711281,89
1774422029.584962,94
1774422029.603201,93
1774422029.6183658,89
1774422029.634322,83
1774422029.6504402,76
1774422029.6665184,69
1774422029.6824524,63
1774422029.7066696,58
1774422029.7156649,53
1774422029.7356982,50
1774422029.748913,47
1774422029.767965,44
1774422029.7819338,43
1774422029.7991738,42
1774422029.8238006,41
1774422029.8382292,40
1774422029.8534029,40
1774422029.8729925,39
1774422029.8846095,37
1774422029.9045413,34
1774422029.9181335,31
1774422029.936789,28
1774422029.9525738,25
1774422029.9686248,22
1774422029.9846127,20
1774422030.0005739,17
1774422030.0152915,16
1774422030.032623,14
1774422030.0635004,13
1774422030.067174,12
1774422030.0887682,11
1774422030.1031451,10
1774422030.1179016,9
1774422030.1374729,9
1774422030.1575963,8
1774422030.1766968,8
1774422030.181888,7
1774422030.2029266,7
1774422030.2224703,7
1774422030.2405994,7
1774422030.2540655,9
1774422030.268916,15
1774422030.2901747,26
1774422030.3037546,40
1774422030.3203828,56
1774422030.3393602,72
1774422030.3580124,85
1774422030.3670611,93
1774422030.3831453,95
1774422030.3994439,93
1774422030.4153106,88
1774422030.4323847,81
1774422030.4493725,75
1774422030.4676425,70
1774422030.4881146,65
1774422030.5103557,60
1774422030.5157743,56
1774422030.5388353,52
1774422030.5554788,49
1774422030.5737324,47
1774422030.5903382,45
1774422030.6064491,43
1774422030.6165848,42
1774422030.638299,41
1774422030.6541262,40
1774422030.670279,39
1774422030.682817,37
1774422030.6990976,34
1774422030.7163503,32
1774422030.732754,29
1774422030.7487142,26
1774422030.773629,23
1774422030.787649,21
1774422030.8068342,19
1774422030.8157318,17
1774422030.833686,15
1774422030.8490803,14
1774422030.8671079,13
1774422030.8833354,12
1774422030.9066226,11
1774422030.9153192,10
1774422030.938762,9
1774422030.9514093,9
1774422030.9686651,8
1774422030.9860024,8
1774422030.999667,7
1774422031.0201337,7
1774422031.039968,6
1774422031.0517585,6
1774422031.0724032,5
1774422031.085735,8
1774422031.1104605,14
1774422031.1241765,25
1774422031.1391172,40
1774422031.1534457,56
1774422031.1710498,72
1774422031.1878252,86
1774422031.204031,94
1774422031.2235575,96
1774422031.2377963,94
1774422031.25229,89
1774422031.2677083,61
1774422031.2866201,58
1774422031.3002713,55
1774422031.3188837,53
1774422031.333649,50
1774422031.3485677,48
1774422031.3693924,47
1774422031.3822494,45
1774422031.4125981,44
1774422031.4181054,42
1774422031.4344337,42
1774422031.449351,41
1774422031.4653723,40
1774422031.491587,40
1774422031.5070324,40
1774422031.523815,39
1774422031.5379493,37
1774422031.551061,36
1774422031.5711439,35
1774422031.5890028,33
1774422031.5998015,32
1774422031.6205964,30
1774422031.635182,29
1774422031.6525784,28
1774422031.669686,28
1774422031.6847315,27
1774422031.7007244,26
1774422031.7151566,26
1774422031.7435808,25
1774422031.7484975,25
1774422031.7713053,24
1774422031.7927146,24
1774422031.8108904,24
1774422031.8236275,24
1774422031.8384204,24
1774422031.8500175,23
1774422031.8736393,23
1774422031.8902218,23
1774422031.906886,23
1774422031.923982,23
1774422031.9400501,23
1774422031.9532504,23
1774422031.9700203,26
1774422031.986027,30
1774422032.0036247,36
1774422032.0185502,42
1774422032.0339139,50
1774422032.0514023,58
1774422032.0667365,64
1774422032.0819519,67
1774422032.0991383,67
1774422032.1202323,65
1774422032.1402104,62
1774422032.1539598,59
1774422032.1703744,56
1774422032.1842597,53
1774422032.2011435,50
1774422032.2233648,48
1774422032.234104,47
1774422032.2484775,45
1774422032.26535,44
1774422032.2883697,44
1774422032.3042636,43
1774422032.3203998,43
1774422032.3364708,43
1774422032.352514,43
1774422032.3683205,42
1774422032.387507,42
1774422032.4006152,40
1774422032.4177694,40
1774422032.4323661,39
1774422032.4487119,37
1774422032.4719741,36
1774422032.4887316,35
1774422032.49898,34
1774422032.521719,33
1774422032.5401938,32
1774422032.5484607,31
1774422032.5739236,31
1774422032.584699,30
1774422032.6074145,30
1774422032.6186469,29
1774422032.6404316,29
1774422032.6555862,29
1774422032.671417,29
1774422032.6873996,29
1774422032.7033482,28
1774422032.718986,28
1774422032.7353566,28
1774422032.7485876,28
1774422032.7666738,27
1774422032.7824135,27
1774422032.8017764,29
1774422032.8151739,32
1774422032.840235,37
1774422032.8582387,43
1774422032.8711276,51
1774422032.8902214,58
1774422032.9051454,64
1774422032.924101,66
1774422032.9371912,67
1774422032.9484293,65
1774422032.972206,62
1774422032.9843674,58
1774422033.0027595,55
1774422033.0198612,52
1774422033.0400207,49
1774422033.050626,47
1774422033.0676193,45
1774422033.0825293,43
1774422033.1067884,43
1774422033.1157084,42
1774422033.1326625,42
1774422033.1577346,42
1774422033.17095,42
1774422033.1875782,42
1774422033.2069864,41
1774422033.2180352,40
1774422033.2386417,40
1774422033.2568827,39
1774422033.2679474,37
1774422033.2901278,36
1774422033.3028207,34
1774422033.3236785,33
1774422033.3327305,32
1774422033.3497546,31
1774422033.367864,30
1774422033.387314,30
1774422033.4032307,29
1774422033.41598,28
1774422033.4349234,28
1774422033.4511285,28
1774422033.4742095,27
1774422033.4846168,27
1774422033.4989836,26
1774422033.523787,26
1774422033.5360036,26
1774422033.5569656,26
1774422033.5736644,26
1774422033.5937028,25
1774422033.602954,25
1774422033.6181366,25
1774422033.6367626,25
1774422033.658284,26
1774422033.667833,29
1774422033.6898975,35
1774422033.7012093,40
1774422033.724225,48
1774422033.737665,56
1774422033.7540183,63
1774422033.769764,67
1774422033.7824185,68
1774422033.8079097,68
1774422033.8159707,65
1774422033.8317218,62
1774422033.852654,59
1774422033.8700807,56
1774422033.8866968,54
1774422033.9078145,51
1774422033.9218552,49
1774422033.93882,48
1774422033.9511368,47
1774422033.9671268,45
1774422033.9902143,45
1774422034.0072453,44
1774422034.021164,44
1774422034.0352285,43
1774422034.0560622,43
1774422034.0679872,42
1774422034.0860782,41
1774422034.099208,40
1774422034.1210651,39
1774422034.1362662,38
1774422034.1484058,36
1774422034.1682625,35
1774422034.1843343,34
1774422034.1999815,33
1774422034.215321,32
1774422034.2345033,31
1774422034.2572985,30
1774422034.2719464,30
1774422034.288985,29
1774422034.3013988,28
1774422034.3263624,28
1774422034.3403842,27
1774422034.3569942,27
1774422034.370114,27
1774422034.3912394,27
1774422034.403143,26
1774422034.4159627,26
1774422034.4360926,26
1774422034.4549801,26
1774422034.471071,25
1774422034.4870293,25
1774422034.4984782,25
1774422034.519114,25
1774422034.5351737,27
1774422034.5501635,30
1774422034.566849,36
1774422034.5818236,42
1774422034.5991092,50
1774422034.6151617,58
1774422034.6468189,64
1774422034.6571288,68
1774422034.6650863,68
1774422034.6819818,67
1774422034.7070942,65
1774422034.7235148,62
1774422034.7401793,58
1774422034.757646,56
1774422034.773719,53
1774422034.7840593,51
1774422034.803641,49
1774422034.8206196,48
1774422034.8389757,47
1774422034.8519442,46
1774422034.869407,45
1774422034.885989,45
1774422034.904593,44
1774422034.9190295,44
1774422034.9350653,43
1774422034.9533947,43
1774422034.9671378,42
1774422034.998994,41
1774422034.9999406,40
1774422035.0179863,39
1774422035.0343196,37
1774422035.0546422,36
1774422035.0724468,35
1774422035.0903234,34
1774422035.1069021,33
1774422035.1247163,32
1774422035.1353035,31
1774422035.1534498,31
1774422035.1669264,30
1774422035.1887178,30
1774422035.198715,29
1774422035.22022,29
1774422035.237277,29
1774422035.2539937,29
1774422035.2696505,28
1774422035.2823179,28
1774422035.30013,28
1774422035.3212771,28
1774422035.3336742,27
1774422035.3497374,27
1774422035.3775795,27
1774422035.3817542,28
1774422035.4112575,30
1774422035.4168842,35
1774422035.4350097,40
1774422035.4504995,48
1774422035.4749284,55
1774422035.4869177,62
1774422035.4986658,66
1774422035.5198154,68
1774422035.531831,67
1774422035.551361,65
1774422035.572683,61
1774422035.588481,58
1774422035.6045086,55
1774422035.6183162,52
1774422035.636361,49
1774422035.6485534,47
1774422035.6682851,46
1774422035.6846168,45
1774422035.699342,44
1774422035.717023,43
1774422035.7382405,43
1774422035.7482874,43
1774422035.7747583,43
1774422035.7833307,42
1774422035.8076797,42
1774422035.8240595,41
1774422035.8433135,40
1774422035.8503892,39
1774422035.873554,38
1774422035.8844755,37
1774422035.9068916,35
1774422035.9198632,34
1774422035.9379377,33
1774422035.9514303,32
1774422035.970097,31
1774422035.9863415,31
1774422036.0020378,30
1774422036.0159867,30
1774422036.0344691,29
1774422036.0566518,29
1774422036.0662181,29
1774422036.0822437,29
1774422036.0998144,29
1774422036.1169386,29
1774422036.1324925,28
1774422036.1579466,28
1774422036.1780002,28
1774422036.1815674,28
1774422036.2054586,29
1774422036.215906,32
1774422036.2401738,36
1774422036.2483065,42
1774422036.274143,49
1774422036.2900074,57
1774422036.3015225,65
1774422036.3232746,70
1774422036.332562,73
1774422036.3540452,73
1774422036.3670797,71
1774422036.3861122,68
1774422036.4024,65
1774422036.4184322,61
1774422036.4338143,58
1774422036.449897,56
1774422036.4664917,53
1774422036.4820836,51
1774422036.499157,50
1774422036.5253475,49
1774422036.5315626,49
1774422036.5627363,48
1774422036.573749,49
1774422036.5902956,50
1774422036.6068814,50
1774422036.615086,51
1774422036.6368036,52
1774422036.648242,53
1774422036.673875,54
1774422036.690271,55
1774422036.7096572,56
1774422036.7238824,57
1774422036.7380538,59
1774422036.754276,60
1774422036.7699766,60
1774422036.785882,61
1774422036.8023326,61
1774422036.81584,61
1774422036.8340452,61
1774422036.8526242,61
1774422036.8659577,61
1774422036.8856144,60
1774422036.9069622,60
1774422036.9218025,59
1774422036.9358532,58
1774422036.9495056,58
1774422036.9683192,60
1774422036.9914057,62
1774422037.0101895,67
1774422037.0159879,72
1774422037.04193,77
1774422037.0570276,81
1774422037.0707777,83
1774422037.0892289,83
1774422037.1072795,80
1774422037.1200476,77
1774422037.133181,72
1774422037.154351,68
1774422037.1735458,63
1774422037.1838212,60
1774422037.1999116,56
1774422037.218383,53
1774422037.2319155,50
1774422037.2490115,48
1774422037.2684054,46
1774422037.2953064,44
1774422037.3013394,43
1774422037.325711,42
1774422037.335141,40
1774422037.3563166,39
1774422037.375299,38
1774422037.38363,36
1774422037.4070795,33
1774422037.4149423,31
1774422037.4345133,29
1774422037.4502234,27
1774422037.469182,25
1774422037.4855852,24
1774422037.5048637,23
1774422037.5177968,22
1774422037.5326211,21
1774422037.5486658,21
1774422037.5748374,21
1774422037.5815468,21
1774422037.6009839,21
1774422037.6236188,20
1774422037.6410844,20
1774422037.6500125,20
1774422037.6766608,21
1774422037.6839275,22
1774422037.70465,26
1774422037.717478,31
1774422037.7315917,36
1774422037.7568324,42
1774422037.7725766,47
1774422037.7843103,51
1774422037.799984,52
1774422037.8201752,52
1774422037.8361824,50
1774422037.8521833,54
1774422037.8701713,48
1774422037.884255,43
1774422037.900155,39
1774422037.923564,35
1774422037.9393046,32
1774422037.95716,29
1774422037.9712174,28
1774422037.9868245,27
1774422038.004202,27
1774422038.0235257,27
1774422038.0356429,28
1774422038.0584705,28
1774422038.0689006,27
1774422038.0903635,26
1774422038.099382,24
1774422038.1222785,22
1774422038.131435,20
1774422038.153739,17
1774422038.1687393,15
1774422038.1818016,13
1774422038.2009747,12
1774422038.2154572,10
1774422038.2398357,9
1774422038.2568452,8
1774422038.267886,7
1774422038.2901235,6
1774422038.3072758,5
1774422038.324985,4
1774422038.3394816,4
1774422038.3589528,6
1774422038.3712332,10
1774422038.3899882,18
1774422038.4061902,27
1774422038.4166963,38
1774422038.4333744,47
1774422038.4513404,55
1774422038.4681354,59
1774422038.4835446,59
1774422038.4993348,56
1774422038.5181766,51
1774422038.5341733,46
1774422038.5501065,41
1774422038.5664287,38
1774422038.5822887,34
1774422038.5984712,31
1774422038.6158214,29
1774422038.644942,28
1774422038.6571774,27
1774422038.6782117,28
1774422038.6848862,28
1774422038.70684,29
1774422038.7163663,30
1774422038.7339358,30
1774422038.7562227,30
1774422038.7709045,28
1774422038.7853982,27
1774422038.8038573,25
1774422038.8220544,23
1774422038.838393,21
1774422038.8533878,19
1774422038.870085,17
1774422038.8840442,16
1774422038.8989775,15
1774422038.9182143,14
1774422038.9341898,14
1774422038.9531088,13
1774422038.9660761,13
1774422038.9818244,13
1774422038.9984725,14
1774422039.0176811,19
1774422039.04048,26
1774422039.0575724,36
1774422039.0741396,46
1774422039.0931566,56
1774422039.1071012,64
1774422039.1239686,68
1774422039.1388104,69
1774422039.1560328,66
1774422039.1722422,62
1774422039.1852803,57
1774422039.2022176,52
1774422039.217311,48
1774422039.235354,44
1774422039.2503502,41
1774422039.2680967,40
1774422039.293347,38
1774422039.299793,36
1774422039.315658,36
1774422039.3317163,35
1774422039.3551543,35
1774422039.374887,35
1774422039.3825543,34
1774422039.4010873,33
1774422039.415783,31
1774422039.4339263,29
1774422039.449281,27
1774422039.4676635,24
1774422039.4821005,22
1774422039.506947,20
1774422039.5236406,18
1774422039.537293,17
1774422039.5496266,16
1774422039.567731,14
1774422039.5842614,13
1774422039.603902,13
1774422039.616109,12
1774422039.6332307,11
1774422039.6484206,10
1774422039.6678257,10
1774422039.6840522,12
1774422039.6998599,17
1774422039.7158628,25
1774422039.732102,35
1774422039.7525895,46
1774422039.7781875,57
1774422039.7877831,65
1774422039.806912,70
1774422039.8180783,70
1774422039.839705,68
1774422039.8527172,64
1774422039.8723354,60
1774422039.8854728,57
1774422039.904329,53
1774422039.9186244,50
1774422039.933855,48
1774422039.9502113,45
1774422039.965108,42
1774422039.9872491,40
1774422040.0035753,38
1774422040.021444,36
1774422040.0318806,35
1774422040.0499148,34
1774422040.067354,33
1774422040.0833092,32
1774422040.0995293,31
1774422040.1153646,29
1774422040.1313841,28
1774422040.1568155,26
1774422040.1734533,24
1774422040.1952312,22
1774422040.1993592,20
1774422040.2295425,18
1774422040.2421172,16
1774422040.2538018,15
1774422040.2748024,14
1774422040.2913327,13
1774422040.3069203,12
1774422040.323498,11
1774422040.340252,11
1774422040.3552973,10
1774422040.3715196,9
1774422040.3872952,9
1774422040.399942,9
1774422040.420135,13
1774422040.4325614,20
1774422040.4513404,29
1774422040.4670866,40
1774422040.4835215,50
1774422040.4993043,60
1774422040.5153258,66
1774422040.5313447,69
1774422040.5482938,68
1774422040.5748105,66
1774422040.58614,62
1774422040.6046426,59
1774422040.6181986,56
1774422040.642965,53
1774422040.657396,50
1774422040.6734407,48
1774422040.6893437,45
1774422040.7049646,42
1774422040.718306,40
1774422040.7368557,38
1774422040.7568452,36
1774422040.7707157,35
1774422040.7902093,34
1774422040.800901,33
1774422040.8175502,32
1774422040.8354049,31
1774422040.8489172,29
1774422040.864911,27
1774422040.8902507,25
1774422040.899327,23
1774422040.920189,21
1774422040.9333785,19
1774422040.9645057,17
1774422040.9679017,16
1774422040.9825559,15
1774422041.0011485,14
1774422041.018611,13
1774422041.040288,12
1774422041.0566308,12
1774422041.0831478,11
1774422041.0832264,10
1774422041.0993514,10
1774422041.1178355,9
1774422041.140214,9
1774422041.1529124,8
1774422041.169454,8
1774422041.1818578,7
1774422041.2003274,7
1774422041.2153437,6
1774422041.232595,7
1774422041.24859,12
1774422041.2674637,19
1774422041.2953808,29
1774422041.299389,40
1774422041.3156583,51
1774422041.3313234,61
1774422041.3521285,66
1774422041.374365,68
1774422041.3839686,66
1774422041.4064994,63
1774422041.4162922,59
1774422041.4349291,55
1774422041.4515314,52
1774422041.4706013,49
1774422041.4865396,47
1774422041.5024695,44
1774422041.518111,42
1774422041.5334666,40
1774422041.5484805,39
1774422041.56548,38
1774422041.5922124,36
1774422041.6069477,35
1774422041.6249478,35
1774422041.6379054,34
1774422041.6553152,33
1774422041.669481,32
1774422041.6850655,30
1774422041.6989837,28
1774422041.715329,26
1774422041.7315981,25
1774422041.7630446,23
1774422041.766718,21
1774422041.7884226,19
1774422041.7987795,18
1774422041.8164546,17
1774422041.8366532,16
1774422041.8481305,15
1774422041.8685987,14
1774422041.8834074,14
1774422041.8998308,13
1774422041.915376,12
1774422041.9331386,12
1774422041.9512987,11
1774422041.9736986,11
1774422041.982433,10
1774422042.0055022,10
1774422042.0235853,10
1774422042.0380244,9
1774422042.056995,9
1774422042.0668397,9
1774422042.0833163,8
1774422042.1035469,8
1774422042.11961,8
1774422042.1325054,9
1774422042.1514106,11
1774422042.1707118,15
1774422042.1839058,22
1774422042.204051,32
1774422042.2184913,42
1774422042.2346284,52
1774422042.2504184,62
1774422042.2736754,68
1774422042.2819042,70
1774422042.300402,68
1774422042.3225808,64
1774422042.3317773,60
1774422042.3568804,55
1774422042.370934,51
1774422042.3911643,48
1774422042.3999557,46
1774422042.423579,44
1774422042.4341474,42
1774422042.452783,41
1774422042.4675066,40
1774422042.4844897,40
1774422042.4999852,40
1774422042.5219243,39
1774422042.5314815,39
1774422042.551268,38
1774422042.5645986,38
1774422042.590158,37
1774422042.6076024,35
1774422042.6155465,34
1774422042.6327398,32
1774422042.6480055,30
1774422042.6647437,29
1774422042.6909976,27
1774422042.7069116,26
1774422042.7245622,25
1774422042.741009,24
1774422042.7509093,24
1774422042.773486,23
1774422042.7901676,23
1774422042.8069873,22
1774422042.8148603,22
1774422042.835515,21
1774422042.8569891,21
1774422042.8706653,20
1774422042.883056,20
1774422042.8985622,20
1774422042.9185607,20
1774422042.9317768,19
1774422042.9506557,19
1774422042.966544,19
1774422042.9825816,19
1774422043.002126,19
1774422043.0147552,19
1774422043.0429788,19
1774422043.0554874,20
1774422043.0735872,22
1774422043.0884178,28
1774422043.106418,37
1774422043.116605,46
1774422043.1392934,58
1774422043.1575036,69
1774422043.172436,77
1774422043.1836176,80
1774422043.2031267,80
1774422043.2226975,77
1774422043.2382767,72
1774422043.2540886,67
1774422043.2659192,62
1774422043.2862756,58
1774422043.2986631,55
1774422043.3168821,53
1774422043.3319438,51
1774422043.350257,50
1774422043.3657458,50
1774422043.3854349,50
1774422043.3979056,51
1774422043.4238436,52
1774422043.4331293,53
1774422043.4501767,53
1774422043.4656484,53
1774422043.4849868,52
1774422043.5077586,51
1774422043.525097,49
1774422043.5403666,47
1774422043.5568988,45
1774422043.5673559,43
1774422043.589396,41
1774422043.5985901,40
1774422043.6202433,39
1774422043.6361308,38
1774422043.6529372,37
1774422043.6660957,36
1774422043.6846457,35
1774422043.7006755,35
1774422043.717142,34
1774422043.7328582,34
1774422043.7485502,33
1774422043.7644932,33
1774422043.7828085,32
1774422043.8097844,32
1774422043.82311,31
1774422043.8444717,30
1774422043.858279,29
1774422043.8683338,31
1774422043.8895223,35
1774422043.9007142,42
1774422043.9171755,52
1774422043.9392114,64
1774422043.9564176,75
1774422043.96703,84
1774422043.9855518,89
1774422044.003774,89
1774422044.0196025,87
1774422044.0357456,83
1774422044.055513,78
1774422044.0669382,73
1774422044.0826862,69
1774422044.0989184,65
1774422044.1156623,62
1774422044.1312194,60
1774422044.1479805,58
1774422044.164474,56
1774422044.195725,55
1774422044.210537,54
1774422044.2196915,54
1774422044.2428696,54
1774422044.256862,54
1774422044.2747765,53
1774422044.2837527,51
1774422044.304558,50
1774422044.3179777,47
1774422044.3377292,44
1774422044.3478239,42
1774422044.369579,40
1774422044.3878195,38
1774422044.4016726,36
1774422044.4190302,34
1774422044.4336631,33
1774422044.4487433,32
1774422044.4656692,30
1774422044.485076,29
1774422044.498869,28
1774422044.523487,28
1774422044.536829,27
1774422044.557026,26
1774422044.577722,25
1774422044.588472,25
1774422044.606858,24
1774422044.6165092,24
1774422044.6420283,23
1774422044.6479695,23
1774422044.6653364,24
1774422044.6847267,28
1774422044.7046597,35
1774422044.7208612,45
1774422044.7367072,57
1774422044.7533712,70
1774422044.7693043,82
1774422044.7842696,89
1774422044.7997978,93
1774422044.8164277,92
1774422044.831749,88
1774422044.8592994,84
1774422044.8672082,78
1774422044.890163,74
1774422044.9033964,70
1774422044.926471,67
1774422044.932167,64
1774422044.9520333,61
1774422044.9645164,58
1774422044.9823148,56
1774422045.005134,54
1774422045.0205739,52
1774422045.0430038,51
1774422045.0554543,50
1774422045.0729866,49
1774422045.086581,47
1774422045.1026256,46
1774422045.1177526,44
1774422045.1329365,41
1774422045.1509311,39
1774422045.1718907,37
1774422045.1842964,34
1774422045.198613,31
1774422045.2147973,29
1774422045.2360272,27
1774422045.2484503,25
1774422045.2672725,24
1774422045.287531,22
1774422045.2988665,21
1774422045.3168514,20
1774422045.331867,19
1774422045.356,18
1774422045.367418,17
1774422045.384289,16
1774422045.406607,16
1774422045.4226866,15
1774422045.433554,14
1774422045.450446,14
1774422045.467909,13
1774422045.485063,13
1774422045.5026548,12
1774422045.5187616,11
1774422045.534791,11
1774422045.5506094,12
1774422045.5667138,16
1774422045.5821555,23
1774422045.6031117,34
1774422045.6200767,45
1774422045.635315,58
1774422045.6610038,69
1774422045.6663642,77
1774422045.6902432,80
1774422045.7046916,79
1774422045.7251327,76
1774422045.7352257,71
1774422045.7543504,66
1774422045.7682886,62
1774422045.7818763,58
1774422045.8032868,55
1774422045.8169775,53
1774422045.8351276,50
1774422045.8510036,47
1774422045.874776,45
1774422045.8858593,43
1774422045.9069443,41
1774422045.9229133,40
1774422045.9384418,39
1774422045.9494255,37
1774422045.973569,36
1774422045.990296,35
1774422046.002844,33
1774422046.024572,31
1774422046.0351918,29
1774422046.0548253,26
1774422046.0669174,24
1774422046.0876493,22
1774422046.1009083,20
1774422046.1164536,18
1774422046.1310654,17
1774422046.1500452,16
1774422046.173555,15
1774422046.1839728,14
1774422046.2049258,13
1774422046.2158995,12
1774422046.2352657,11
1774422046.2477376,10
1774422046.2736113,10
1774422046.2914543,9
1774422046.3069186,9
1774422046.3236437,9
1774422046.3345494,8
1774422046.35722,8
1774422046.3738484,8
1774422046.389455,8
1774422046.405529,7
1774422046.4177663,7
1774422046.4317598,7
1774422046.4514117,6
1774422046.4665916,7
1774422046.4857755,10
1774422046.501767,17
1774422046.5178065,26
1774422046.5339465,37
1774422046.5497153,49
1774422046.5657763,60
1774422046.590569,67
1774422046.6052034,71
1774422046.6174126,70
1774422046.6439543,67
1774422046.6476696,62
1774422046.6761804,58
1774422046.6915474,53
1774422046.7042227,50
1774422046.7158756,47
1774422046.7396533,45
1774422046.7557192,43
1774422046.7710743,41
1774422046.7877467,40
1774422046.8036885,39
1774422046.8189595,39
1774422046.8349788,38
1774422046.8516505,38
1774422046.8676267,38
1774422046.8835394,39
1774422046.8977804,38
1774422046.9156272,37
1774422046.9310539,35
1774422046.9518874,34
1774422046.9643247,31
1774422046.9905376,28
1774422047.008341,27
1774422047.0236304,25
1774422047.033063,24
1774422047.0569057,23
1774422047.0683632,22
1774422047.0902808,21
1774422047.0989988,21
1774422047.123493,20
1774422047.1379685,19
1774422047.1483252,19
1774422047.1692524,18
1774422047.1865993,18
1774422047.2007396,18
1774422047.2187963,18
1774422047.233882,18
1774422047.2511272,17
1774422047.2646575,17
1774422047.2852805,17
1774422047.302486,17
1774422047.3235114,16
1774422047.3326876,16
1774422047.348404,16
1774422047.3735094,16
1774422047.3901844,19
1774422047.40692,25
1774422047.4224074,34
1774422047.4321544,44
1774422047.4503646,55
1774422047.472427,66
1774422047.4836214,73
1774422047.5013576,77
1774422047.5184824,77
1774422047.5365918,73
1774422047.556749,69
1774422047.5680885,63
1774422047.5840604,59
1774422047.5999603,55
1774422047.6160233,51
1774422047.631975,49
1774422047.6479292,47
1774422047.6643777,46
1774422047.6927652,45
1774422047.7046723,44
1774422047.7196336,45
1774422047.7336507,46
1774422047.7537732,46
1774422047.7735076,46
1774422047.7821646,46
1774422047.7978995,45
1774422047.8244524,43
1774422047.8397965,41
1774422047.8492608,40
1774422047.8645225,38
1774422047.8842168,36
1774422047.903738,35
1774422047.9198275,33
1774422047.9408138,32
1774422047.9493122,31
1774422047.967792,30
1774422047.9838002,29
1774422047.9997778,28
1774422048.0149772,28
1774422048.0311782,27
1774422048.0502565,26
1774422048.0695689,26
1774422048.0901845,25
1774422048.1070948,25
1774422048.1153433,24
1774422048.1366055,24
1774422048.1571019,23
1774422048.164945,23
1774422048.1884637,22
1774422048.197816,21
1774422048.2163944,20
1774422048.234625,20
1774422048.2490163,21
1774422048.2686071,24
1774422048.283649,31
1774422048.2986424,41
1774422048.3156843,52
1774422048.3318408,65
1774422048.3523202,75
1774422048.3643222,83
1774422048.3850956,86
1774422048.4056425,85
1774422048.4154785,81
1774422048.4318504,76
1774422048.4516754,71
1774422048.4653032,66
1774422048.4862802,62
1774422048.4993207,59
1774422048.5146334,56
1774422048.531328,54
1774422048.5480287,53
1774422048.5666869,51
1774422048.5879254,50
1774422048.5980694,49
1774422048.6235087,49
1774422048.63575,49
1774422048.6517484,48
1774422048.6677084,47
1774422048.683902,46
1774422048.6992435,44
1774422048.714405,42
1774422048.740968,40
1774422048.751115,38
1774422048.773036,36
1774422048.784551,33
1774422048.8056204,32
1774422048.8151364,30
1774422048.8346453,28
1774422048.8521268,27
1774422048.8682687,26
1774422048.8904884,25
1774422048.9025679,24
1774422048.9234698,24
1774422048.9312117,23
1774422048.9487152,22
1774422048.9656231,22
1774422048.9818451,21
1774422048.9976583,21
1774422049.018903,21
1774422049.0309663,20
1774422049.0504034,20
1774422049.0711675,19
1774422049.0826023,18
1774422049.0982122,18
1774422049.1301837,18
1774422049.1390848,20
1774422049.1532998,25
1774422049.1695244,34
1774422049.1814532,44
1774422049.2005844,57
1774422049.214691,71
1774422049.2315726,81
1774422049.2552576,88
1774422049.2670305,90
1774422049.2814102,89
1774422049.3022108,85
1774422049.3143182,80
1774422049.3322718,75
1774422049.348019,70
1774422049.369646,66
1774422049.3906908,63
1774422049.3993032,60
1774422049.4162438,58
1774422049.4336643,57
1774422049.4484138,56
1774422049.4650278,55
1774422049.4808426,54
1774422049.5060132,54
1774422049.5209973,53
1774422049.540231,52
1774422049.5569172,51
1774422049.5755026,50
1774422049.5902133,48
1774422049.6030269,45
1774422049.6237314,43
1774422049.634048,41
1774422049.6557846,40
1774422049.6669211,38
1774422049.6878154,36
1774422049.6992698,34
1774422049.7191803,32
1774422049.7316847,31
1774422049.749059,30
1774422049.767268,29
1774422049.7832584,29
1774422049.799203,28
1774422049.8234782,27
1774422049.8381197,27
1774422049.8496358,27
1774422049.8791637,26
1774422049.8861482,26
1774422049.9075265,25
1774422049.914329,24
1774422049.9313605,24
1774422049.9496694,23
1774422049.9708045,25
1774422049.9896512,30
1774422049.9989831,38
1774422050.0180008,47
1774422050.0378442,59
1774422050.0492432,71
1774422050.0674121,81
1774422050.0810704,87
1774422050.1018069,88
1774422050.1174133,86
1774422050.1310961,81
1774422050.1497774,76
1774422050.164867,70
1774422050.1834397,65
1774422050.2041123,61
1774422050.2269003,57
1774422050.23636,54
1774422050.2530925,51
1774422050.2650847,50
1774422050.2901714,49
1774422050.3068943,49
1774422050.322193,49
1774422050.3325312,50
1774422050.3550413,50
1774422050.3684773,50
1774422050.3828616,49
1774422050.4030528,48
1774422050.4192226,47
1774422050.4351473,45
1774422050.4493845,43
1774422050.4651465,42
1774422050.4829402,40
1774422050.49856,40
1774422050.5145204,39
1774422050.5309443,38
1774422050.5569062,37
1774422050.5749788,36
1774422050.588508,35
1774422050.6070678,35
1774422050.6237304,34
1774422050.6326756,34
1774422050.647927,34
1774422050.6644402,35
1774422050.6813018,35
1774422050.7036643,35
1774422050.7144692,36
1774422050.7376037,36
1774422050.7508554,37
1774422050.7673209,39
1774422050.7829287,42
1774422050.7987719,51
1774422050.8157718,62
1774422050.8308527,75
1774422050.8568914,89
1774422050.86691,102
1774422050.8902435,112
1774422050.904853,116
1774422050.9160721,117
1774422050.936379,115
1774422050.9569216,111
1774422050.9655643,106
1774422050.9905384,70
1774422051.0005598,68
1774422051.0228047,66
1774422051.0386267,65
1774422051.054097,63
1774422051.0706844,62
1774422051.0869927,61
1774422051.102655,60
1774422051.118878,59
1774422051.1315036,58
1774422051.1557512,57
1774422051.1679263,56
1774422051.184701,55
1774422051.19751,54
1774422051.21721,53
1774422051.2354386,51
1774422051.2512367,50
1774422051.266788,49
1774422051.2906141,47
1774422051.3032465,46
1774422051.3235042,44
1774422051.331172,43
1774422051.3520072,42
1774422051.3681753,40
1774422051.3881414,40
1774422051.4034755,39
1774422051.4148269,38
1774422051.4361525,37
1774422051.4479377,36
1774422051.464802,35
1774422051.4847863,34
1774422051.5026314,32
1774422051.5162098,31
1774422051.5324981,29
1774422051.54864,27
1774422051.5751357,26
1774422051.5879047,25
1774422051.5994072,25
1774422051.6186643,27
1774422051.6326177,31
1774422051.65351,36
1774422051.668409,40
1774422051.6843324,46
1774422051.6998553,50
1774422051.7231755,54
1774422051.734882,55
1774422051.7602382,55
1774422051.7710533,54
1774422051.7818723,53
1774422051.7992637,51
1774422051.8182075,50
1774422051.8306923,49
1774422051.8519225,48
1774422051.8681428,47
1774422051.8902135,46
1774422051.901481,46
1774422051.9237983,45
1774422051.9312437,45
1774422051.9541113,45
1774422051.9709508,45
1774422051.9813633,45
1774422052.0093951,46
1774422052.0197136,46
1774422052.040229,46
1774422052.0568726,46
1774422052.0712762,46
1774422052.0880384,46
1774422052.0998318,46
1774422052.1220527,45
1774422052.1308482,45
1774422052.1541593,44
1774422052.168669,44
1774422052.1861713,44
1774422052.2011876,43
1774422052.2180495,43
1774422052.234122,42
1774422052.2502613,42
1774422052.2778275,42
1774422052.2821546,41
1774422052.297728,41
1774422052.3247538,41
1774422052.3392406,40
1774422052.3496904,40
1774422052.3729496,40
1774422052.382732,40
1774422052.4017837,39
1774422052.4168968,40
1774422052.4352489,41
1774422052.4483645,45
1774422052.4646316,49
1774422052.4839976,54
1774422052.49975,59
1774422052.5215106,62
1774422052.5312412,64
1774422052.5534263,63
1774422052.568324,62
1774422052.5843396,60
1774422052.6065233,57
1774422052.6235156,55
1774422052.632461,53
1774422052.6559067,52
1774422052.674059,50
1774422052.6869621,49
1774422052.7068126,48
1774422052.718304,47
1774422052.73384,46
1774422052.7517164,45
1774422052.7700353,44
1774422052.781214,44
1774422052.8057642,43
1774422052.8154998,43
1774422052.840404,42
1774422052.8553393,41
1774422052.8669007,40
1774422052.8885481,40
1774422052.8994203,39
1774422052.9144685,38
1774422052.9318192,37
1774422052.9514325,36
1774422052.9640055,35
1774422052.9824107,34
1774422053.0005195,34
1774422053.0164955,33
1774422053.0326083,33
1774422053.0533178,33
1774422053.0695298,32
1774422053.0807939,32
1774422053.1069965,32
1774422053.1228402,31
1774422053.1383352,31
1774422053.1569335,30
1774422053.1712148,30
1774422053.19239,29
1774422053.2018344,30
1774422053.2236867,32
1774422053.235877,35
1774422053.2558522,39
1774422053.2692358,43
1774422053.2824645,47
1774422053.3029466,51
1774422053.3198383,53
1774422053.3356702,53
1774422053.3519971,52
1774422053.3646066,60
1774422053.3833609,56
1774422053.3990455,52
1774422053.4149501,48
1774422053.4308817,45
1774422053.4514322,43
1774422053.4681196,41
1774422053.4823656,40
1774422053.5028524,39
1774422053.5156503,38
1774422053.54037,37
1774422053.5568986,35
1774422053.5665696,34
1774422053.5882533,32
1774422053.606384,29
1774422053.6199555,25
1774422053.6354082,22
1774422053.6522188,17
1774422053.6680996,13
1774422053.68642,10
1774422053.701543,6
1774422053.7174737,3
1774422053.9896233,10
1774422054.0033922,20
1774422054.0205662,30
1774422054.0365787,38
1774422054.049587,42
1774422054.0680583,43
1774422054.0831785,42
1774422054.100686,39
1774422054.1182091,35
1774422054.132065,32
1774422054.1479933,29
1774422054.163948,26
1774422054.1902132,24
1774422054.208125,22
1774422054.2180216,21
1774422054.241489,21
1774422054.2498362,20
1774422054.2725508,20
1774422054.2904441,20
1774422054.2986917,21
1774422054.3144677,20
1774422054.3391116,20
1774422054.355098,19
1774422054.3715794,18
1774422054.39468,17
1774422054.4032059,15
1774422054.4226131,13
1774422054.4358487,12
1774422054.4490783,11
1774422054.4664884,9
1774422054.4822698,9
1774422054.504957,8
1774422054.5141346,7
1774422054.5315256,7
1774422054.551446,6
1774422054.566247,6
1774422054.585468,5
1774422054.6032228,5
1774422054.6254368,5
1774422054.635108,6
1774422054.655972,9
1774422054.6719954,15
1774422054.6885822,23
1774422054.7030447,32
1774422054.719146,41
1774422054.7357955,49
1774422054.7484367,54
1774422054.7714934,55
1774422054.7832618,54
1774422054.7980804,51
1774422054.81729,47
1774422054.8376894,43
1774422054.856424,40
1774422054.8673236,37
1774422054.893384,35
1774422054.9013083,34
1774422054.9253962,32
1774422054.9314766,32
1774422054.9573834,32
1774422054.9661968,32
1774422054.9869168,33
1774422054.9981914,33
1774422055.0197458,33
1774422055.037442,33
1774422055.0528631,32
1774422055.068989,30
1774422055.0826647,28
1774422055.100002,27
1774422055.1168365,25
1774422055.138673,23
1774422055.1481678,22
1774422055.1640677,21
1774422055.1815038,20
1774422055.2070003,19
1774422055.2141259,19
1774422055.2380867,18
1774422055.2488654,17
1774422055.266974,17
1774422055.2855728,16
1774422055.302334,16
1774422055.3230186,18
1774422055.3344693,23
1774422055.3488972,30
1774422055.3651152,39
1774422055.3863232,48
1774422055.4017472,57
1774422055.4185023,64
1774422055.4336543,68
1774422055.4502983,68
1774422055.4657447,66
1774422055.481899,62
1774422055.5061364,58
1774422055.5143921,54
1774422055.53816,51
1774422055.5576143,48
1774422055.5717149,46
1774422055.5871048,44
1774422055.6035388,42
1774422055.6221974,41
1774422055.6354856,40
1774422055.6567774,40
1774422055.667414,40
1774422055.6876252,40
1774422055.6980808,39
1774422055.7196305,38
1774422055.7321374,37
1774422055.7522595,35
1774422055.7735987,33
1774422055.780675,31
1774422055.798844,29
1774422055.821177,27
1774422055.8396823,25
1774422055.8568904,24
1774422055.865334,22
1774422055.8872333,21
1774422055.906374,21
1774422055.919537,20
1774422055.9354835,19
1774422055.9510446,19
1774422055.9662411,18
1774422055.9881313,18
1774422056.002873,17
1774422056.020437,17
1774422056.03559,18
1774422056.0671887,22
1774422056.0683768,29
1774422056.0842886,39
1774422056.0999818,50
1774422056.1166997,61
1774422056.131631,71
1774422056.1483955,76
1774422056.1640637,78
1774422056.1903973,77
1774422056.197131,73
1774422056.22852,69
1774422056.238885,66
1774422056.2570746,62
1774422056.267336,60
1774422056.283286,58
1774422056.3069289,55
1774422056.3187354,53
1774422056.3315938,50
1774422056.3484983,48
1774422056.3719685,46
1774422056.3881454,44
1774422056.3973591,43
1774422056.4200087,42
1774422056.435189,41
1774422056.4506714,40
1774422056.464164,39
1774422056.4853723,37
1774422056.4988499,34
1774422056.5162628,32
1774422056.5321631,30
1774422056.549587,28
1774422056.564143,26
1774422056.5894706,24
1774422056.6069942,23
1774422056.625508,22
1774422056.6404102,20
1774422056.6571524,19
1774422056.6748567,18
1774422056.68416,17
1774422056.706913,17
1774422056.7235239,16
1774422056.7312453,15
1774422056.750664,15
1774422056.7720146,14
1774422056.7884395,14
1774422056.8011706,15
1774422056.8171954,19
1774422056.8331864,26
1774422056.8487356,36
1774422056.8650033,46
1774422056.8822143,57
1774422056.8991652,66
1774422056.9234524,71
1774422056.9315448,73
1774422056.9511454,71
1774422056.9637792,67
1774422056.99019,63
1774422057.0049374,59
1774422057.0216436,55
1774422057.0401006,52
1774422057.0559175,50
1774422057.0713553,47
1774422057.0869951,46
1774422057.1021094,44
1774422057.1154814,42
1774422057.1318552,41
1774422057.1510859,40
1774422057.166277,40
1774422057.1827943,38
1774422057.1990435,37
1774422057.2147503,37
1774422057.2357638,36
1774422057.2565038,34
1774422057.2674286,32
1774422057.290131,31
1774422057.2999032,29
1774422057.314663,26
1774422057.3309808,25
1774422057.3493593,23
1774422057.3734982,22
1774422057.3848603,21
1774422057.3988278,20
1774422057.4170723,19
1774422057.4378483,18
1774422057.4506085,18
1774422057.46511,17
1774422057.4858403,16
1774422057.5016778,16
1774422057.5148127,16
1774422057.5371478,16
1774422057.5493596,15
1774422057.5707335,15
1774422057.5814497,15
1774422057.5974388,15
1774422057.6216786,18
1774422057.6336694,23
1774422057.6612756,32
1774422057.6685596,41
1774422057.6909266,52
1774422057.7001328,62
1774422057.7143605,69
1774422057.73088,72
1774422057.7570376,72
1774422057.76658,68
1774422057.7893069,64
1774422057.8053539,60
1774422057.816657,56
1774422057.833351,52
1774422057.8532019,50
1774422057.86938,48
1774422057.8854272,46
1774422057.9014614,45
1774422057.917359,44
1774422057.940783,44
1774422057.954036,44
1774422057.9707272,44
1774422057.9813678,44
1774422057.9975622,43
1774422058.0151997,42
1774422058.0373075,41
1774422058.0491734,40
1774422058.0667648,38
1774422058.0923252,36
1774422058.101788,34
1774422058.1236234,32
1774422058.1329014,30
1774422058.1563447,29
1774422058.1677513,27
1774422058.19063,27
1774422058.1970675,26
1774422058.2204077,25
1774422058.2335865,24
1774422058.2585752,23
1774422058.2675197,23
1774422058.2901237,22
1774422058.3011649,22
1774422058.314746,21
1774422058.3315122,21
1774422058.347862,21
1774422058.3637087,22
1774422058.3863294,27
1774422058.403438,34
1774422058.4210055,43
1774422058.4347837,53
1774422058.4486005,63
1774422058.464185,71
1774422058.4825902,75
1774422058.5017817,76
1774422058.5236013,73
1774422058.530428,69
1774422058.5519192,65
1774422058.5657594,61
1774422058.5828848,57
1774422058.602575,54
1774422058.623587,51
1774422058.6342542,49
1774422058.6470861,48
1774422058.6646574,46
1774422058.6817734,45
1774422058.706494,44
1774422058.7137554,43
1774422058.7305791,43
1774422058.7495375,42
1774422058.7715082,41
1774422058.7811823,40
1774422058.8045113,39
1774422058.8172214,37
1774422058.8380055,34
1774422058.8500755,32
1774422058.8664446,30
1774422058.8893185,28
1774422058.9031308,26
1774422058.9193265,25
1774422058.9310071,24
1774422058.9521992,23
1774422058.968542,22
1774422058.9844637,21
1774422059.0003614,20
1774422059.0161004,19
1774422059.040168,19
1774422059.0484524,18
1774422059.0642624,18
1774422059.09082,18
1774422059.1072829,17
1774422059.1282082,17
1774422059.1323895,17
1774422059.156519,16
1774422059.1735957,15
1774422059.184171,17
1774422059.201956,22
1774422059.2164865,30
1774422059.2368832,40
1774422059.2502503,50
1774422059.26517,62
1774422059.2919867,70
1774422059.3022325,75
1774422059.317486,76
1774422059.3309276,74
1774422059.3561513,70
1774422059.3636403,66
1774422059.3893642,62
1774422059.3989491,59
1774422059.42153,57
1774422059.4308538,54
1774422059.4474058,52
1774422059.4640977,50
1774422059.4818761,47
1774422059.497761,45
1774422059.514369,43
1774422059.5369332,42
1774422059.5489805,41
1774422059.570903,40
1774422059.5841124,40
1774422059.6035979,38
1774422059.6183693,37
1774422059.6383777,35
1774422059.6548839,33
1774422059.667267,31
1774422059.6838784,29
1774422059.6988904,27
1774422059.7137315,25
1774422059.730865,23
1774422059.7506776,22
1774422059.7670577,21
1774422059.7822206,20
1774422059.8038354,19
1774422059.8167171,18
1774422059.8308778,17
1774422059.8470144,16
1774422059.8684487,16
1774422059.8882687,15
1774422059.9116755,14
1774422059.9176686,14
1774422059.9402914,14
1774422059.9568563,13
1774422059.9698296,13
1774422059.9868999,12
1774422060.0070758,12
1774422060.0137265,13
1774422060.034778,17
1774422060.0547957,24
1774422060.0668683,33
1774422060.08676,42
1774422060.09909,53
1774422060.1250203,61
1774422060.1314335,66
1774422060.1491942,67
1774422060.1643713,66
1774422060.1828675,62
1774422060.1978343,58
1774422060.2238176,54
1774422060.2308154,50
1774422060.255967,48
1774422060.2667007,46
1774422060.2809303,44
1774422060.3082533,43
1774422060.3174171,41
1774422060.3330932,40
1774422060.3535416,40
1774422060.373775,40
1774422060.387321,39
1774422060.4029546,39
1774422060.4217362,38
1774422060.4375756,37
1774422060.447705,36
1774422060.4659338,35
1774422060.4827049,33
1774422060.497978,31
1774422060.520129,30
1774422060.53397,28
1774422060.5493336,27
1774422060.5635724,26
1774422060.5831115,25
1774422060.5977619,24
1774422060.6144855,23
1774422060.6302524,22
1774422060.656967,22
1774422060.6708143,21
1774422060.6826274,21
1774422060.7082398,20
1774422060.7258444,20
1774422060.739657,20
1774422060.7569742,20
1774422060.7708158,20
1774422060.7835677,19
1774422060.8032253,19
1774422060.8175938,19
1774422060.835282,19
1774422060.8499563,22
1774422060.868915,28
1774422060.8843722,36
1774422060.9007862,45
1774422060.9136584,54
1774422060.934847,62
1774422060.9488173,67
1774422060.9647996,68
1774422060.9808266,66
1774422060.996888,62
1774422061.016669,58
1774422061.0404022,54
1774422061.0570278,50
1774422061.0646863,47
1774422061.089498,45
1774422061.10688,43
1774422061.13955,42
1774422061.1396708,41
1774422061.1526854,40
1774422061.1714826,40
1774422061.1848233,40
1774422061.2028012,41
1774422061.2195845,41
1774422061.2349102,40
1774422061.2515466,40
1774422061.2657773,39
1774422061.2820997,37
1774422061.2988653,35
1774422061.313892,32
1774422061.3333511,31
1774422061.3475506,29
1774422061.363679,28
1774422061.383631,27
1774422061.4052603,26
1774422061.4204485,25
1774422061.442731,24
1774422061.447239,24
1774422061.4646504,23
1774422061.4824162,22
1774422061.50279,22
1774422061.5196428,21
1774422061.5335255,21
1774422061.5568128,21
1774422061.5707223,21
1774422061.5868394,21
1774422061.5988417,20
1774422061.6188114,20
1774422061.6346915,20
1774422061.6500494,20
1774422061.6687868,21
1774422061.6832738,25
1774422061.7002845,32
1774422061.722264,40
1774422061.7323651,50
1774422061.7614207,60
1774422061.763996,68
1774422061.7903798,73
1774422061.7973995,74
1774422061.818857,72
1774422061.8301637,68
1774422061.8511593,64
1774422061.8656864,61
1774422061.8822632,58
1774422061.897074,55
1774422061.9227717,53
1774422061.937461,51
1774422061.9535327,49
1774422061.9708033,48
1774422061.9804757,46
1774422062.0015516,45
1774422062.0164597,44
1774422062.0324378,44
1774422062.0485883,43
1774422062.0644267,42
1774422062.0807197,41
1774422062.0969658,40
1774422062.1232138,39
1774422062.1329262,37
1774422062.1520722,36
1774422062.1640737,34
1774422062.1838262,32
1774422062.1983705,30
1774422062.2232912,29
1774422062.2393572,28
1774422062.2567964,27
1774422062.2634463,26
1774422062.2846441,25
1774422062.2985613,24
1774422062.3141592,24
1774422062.3309078,23
1774422062.3507466,22
1774422062.3676097,22
1774422062.389729,22
1774422062.3983595,21
1774422062.414402,21
1774422062.4306703,21
1774422062.4468927,21
1774422062.4654212,20
1774422062.4806619,20
1774422062.50002,20
1774422062.5234962,21
1774422062.5321147,26
1774422062.5491495,33
1774422062.569216,41
1774422062.5903885,52
1774422062.6008184,63
1774422062.6219707,72
1774422062.633253,76
1774422062.647885,78
1774422062.6634536,76
1774422062.686501,72
1774422062.700961,69
1774422062.7167225,65
1774422062.732839,62
1774422062.7567525,59
1774422062.7648346,57
1774422062.7885869,55
1774422062.8017144,53
1774422062.819077,51
1774422062.840276,50
1774422062.8587544,48
1774422062.871943,48
1774422062.8851748,47
1774422062.8991,46
1774422062.9142668,46
1774422062.9329567,44
1774422062.9539175,43
1774422062.9643133,42
1774422062.994683,40
1774422062.9977715,39
1774422063.0206256,37
1774422063.0361378,35
1774422063.0506647,33
1774422063.0668776,32
1774422063.0833657,31
1774422063.1007519,30
1774422063.1238656,29
1774422063.1340072,28
1774422063.1568136,27
1774422063.1659827,26
1774422063.18076,26
1774422063.2070148,25
1774422063.2146637,24
1774422063.2406054,24
1774422063.2497349,24
1774422063.269796,24
1774422063.2903886,23
1774422063.2991056,23
1774422063.323596,23
1774422063.3401587,22
1774422063.3566594,22
1774422063.3640008,23
1774422063.3887331,26
1774422063.4047694,32
1774422063.4155848,40
1774422063.4331677,51
1774422063.4485343,63
1774422063.4667149,73
1774422063.484341,79
1774422063.4988508,82
1774422063.5149758,81
1774422063.530123,78
1774422063.5475814,73
1774422063.571311,69
1774422063.590122,65
1774422063.6032543,62
