timestamp,bvp
1774419864.86823,22
1774419864.8849113,29
1774419864.901545,37
1774419864.9182246,46
1774419864.9348774,56
1774419864.9530196,64
1774419864.9682071,70
1774419864.9848735,73
1774419865.001516,75
1774419865.0182061,74
1774419865.0348523,73
1774419865.0515518,71
1774419865.0682175,68
1774419865.0848556,65
1774419865.1016407,62
1774419865.1189501,59
1774419865.1356409,56
1774419865.1575906,55
1774419865.1689792,53
1774419865.1880438,52
1774419865.2030573,51
1774419865.219014,49
1774419865.2351696,47
1774419865.2522588,44
1774419865.26895,41
1774419865.2867227,39
1774419865.3051388,37
1774419865.3181543,34
1774419865.335993,32
1774419865.3611357,29
1774419865.3709347,28
1774419865.394474,26
1774419865.4021733,25
1774419865.4187922,24
1774419865.4360292,23
1774419865.454904,22
1774419865.4685812,21
1774419865.4851735,20
1774419865.5018468,20
1774419865.5184996,20
1774419865.538994,21
1774419865.5611124,25
1774419865.5787,31
1774419865.5904944,39
1774419865.6046424,48
1774419865.618301,59
1774419865.6409125,68
1774419865.6541202,75
1774419865.6820838,80
1774419865.686075,83
1774419865.711893,84
1774419865.7181451,83
1774419865.744879,82
1774419865.7615101,80
1774419865.7780797,76
1774419865.794165,73
1774419865.8110695,69
1774419865.8219352,65
1774419865.8419487,62
1774419865.858012,59
1774419865.8739514,56
1774419865.8901033,54
1774419865.9032714,52
1774419865.9195328,50
1774419865.9351878,47
1774419865.9519825,44
1774419865.973381,40
1774419865.9863179,38
1774419866.0022452,35
1774419866.0220616,32
1774419866.0444462,30
1774419866.0548189,28
1774419866.0686212,26
1774419866.0853775,24
1774419866.1022823,23
1774419866.1186535,21
1774419866.1361709,20
1774419866.1578486,19
1774419866.1689177,18
1774419866.186598,17
1774419866.2043827,17
1774419866.2206447,19
1774419866.2401485,24
1774419866.2563303,32
1774419866.273163,40
1774419866.2866352,51
1774419866.302469,61
1774419866.3190353,70
1774419866.3381376,77
1774419866.3545315,81
1774419866.3682044,82
1774419866.3871357,83
1774419866.408079,82
1774419866.419553,80
1774419866.43555,77
1774419866.458075,74
1774419866.4706252,70
1774419866.4881487,66
1774419866.5055404,62
1774419866.5243905,58
1774419866.5439734,55
1774419866.5605743,53
1774419866.5681653,51
1774419866.5920067,49
1774419866.601431,46
1774419866.6238995,43
1774419866.640054,40
1774419866.6604226,38
1774419866.678002,35
1774419866.6906273,31
1774419866.7027664,29
1774419866.718338,26
1774419866.745277,24
1774419866.751478,22
1774419866.7784123,21
1774419866.785887,20
1774419866.8061328,19
1774419866.822006,18
1774419866.8449533,17
1774419866.8557105,16
1774419866.8789406,15
1774419866.8899417,14
1774419866.910294,15
1774419866.922132,18
1774419866.9347844,23
1774419866.9602578,31
1774419866.9731586,40
1774419866.9893956,50
1774419867.0113866,61
1774419867.0190022,70
1774419867.0451581,76
1774419867.0582037,79
1774419867.069771,81
1774419867.085305,81
1774419867.10255,80
1774419867.1214726,77
1774419867.1452303,74
1774419867.157702,70
1774419867.1751661,66
1774419867.1930501,62
1774419867.2117581,58
1774419867.2212942,55
1774419867.2434533,52
1774419867.2517717,50
1774419867.2756648,48
1774419867.292701,45
1774419867.3019745,43
1774419867.3235588,40
1774419867.3365607,38
1774419867.3542726,35
1774419867.3717363,32
1774419867.3912196,29
1774419867.4021802,27
1774419867.4284894,25
1774419867.4431934,23
1774419867.4611425,21
1774419867.4722602,20
1774419867.4952443,19
1774419867.511141,18
1774419867.5286,17
1774419867.5400283,16
1774419867.556349,15
1774419867.5687668,14
1774419867.5855336,14
1774419867.6025774,14
1774419867.6249447,15
1774419867.6407413,19
1774419867.6567936,26
1774419867.6767063,35
1774419867.6885786,45
1774419867.704384,55
1774419867.7282095,65
1774419867.7346885,72
1774419867.7616065,77
1774419867.76864,79
1774419867.794589,79
1774419867.8034465,78
1774419867.8227422,76
1774419867.8449297,73
1774419867.8610272,69
1774419867.8756607,65
1774419867.8945622,61
1774419867.9056833,57
1774419867.9277227,55
1774419867.9407074,53
1774419867.9601104,51
1774419867.9705482,49
1774419867.9858153,47
1774419868.0048954,45
1774419868.0238843,42
1774419868.0350502,40
1774419868.0549512,37
1774419868.0709226,34
1774419868.0855963,31
1774419868.1016634,28
1774419868.118831,26
1774419868.134868,24
1774419868.1607568,23
1774419868.170139,21
1774419868.1947699,20
1774419868.2110853,19
1774419868.2282763,18
1774419868.245821,17
1774419868.2629273,16
1774419868.2685013,15
1774419868.2949185,14
1774419868.303789,15
1774419868.3267612,17
1774419868.3391447,22
1774419868.3589475,30
1774419868.3717346,40
1774419868.3885684,49
1774419868.401874,60
1774419868.422856,70
1774419868.4375825,76
1774419868.4634552,80
1774419868.470165,82
1774419868.4900205,82
1774419868.5017676,81
1774419868.5182564,79
1774419868.5347624,75
1774419868.559325,72
1774419868.5695639,68
1774419868.5980515,64
1774419868.60303,60
1774419868.6272936,57
1774419868.6365795,55
1774419868.6621222,53
1774419868.6737187,51
1774419868.6942034,49
1774419868.7123303,47
1774419868.7260518,44
1774419868.7422311,41
1774419868.7582538,39
1774419868.7741103,36
1774419868.7904012,33
1774419868.8061576,30
1774419868.8211358,27
1774419868.8375633,26
1774419868.8532698,24
1774419868.8715093,22
1774419868.885272,21
1774419868.9018037,20
1774419868.9226894,19
1774419868.9349458,18
1774419868.9611735,17
1774419868.9727135,17
1774419868.9857748,18
1774419869.002301,21
1774419869.0278883,27
1774419869.0450234,36
1774419869.0610847,45
1774419869.0697207,56
1774419869.0869524,67
1774419869.1038554,75
1774419869.1223567,81
1774419869.1412485,85
1774419869.1534247,86
1774419869.1714177,86
1774419869.1881196,85
1774419869.2035892,82
1774419869.2252412,79
1774419869.2392495,74
1774419869.2514873,70
1774419869.2774174,65
1774419869.2889767,60
1774419869.3017848,56
1774419869.3277094,53
1774419869.334636,51
1774419869.360541,48
1774419869.3710337,46
1774419869.3937235,43
1774419869.4097116,40
1774419869.420704,38
1774419869.44074,35
1774419869.4527562,32
1774419869.4746466,29
1774419869.4887996,26
1774419869.5015807,24
1774419869.5209382,22
1774419869.5376313,20
1774419869.5540578,19
1774419869.5764148,18
1774419869.586837,17
1774419869.611348,16
1774419869.62047,15
1774419869.6364987,15
1774419869.653728,15
1774419869.6698496,16
1774419869.6945994,20
1774419869.7031655,27
1774419869.7277083,37
1774419869.7369864,47
1774419869.7523627,58
1774419869.772972,68
1774419869.7917037,77
1774419869.802337,82
1774419869.8244247,85
1774419869.84027,85
1774419869.8610945,85
1774419869.8708847,83
1774419869.8867683,80
1774419869.909445,76
1774419869.9186597,71
1774419869.934922,66
1774419869.9577005,62
1774419869.9743352,57
1774419869.993868,54
1774419870.0040853,51
1774419870.0207498,48
1774419870.038026,46
1774419870.0585632,43
1774419870.0688238,40
1774419870.0855317,38
1774419870.101833,35
1774419870.1263528,32
1774419870.1352081,29
1774419870.163017,26
1774419870.1699538,23
1774419870.1987245,21
1774419870.2110329,19
1774419870.2278001,18
1774419870.2444687,17
1774419870.2543833,15
1774419870.270663,15
1774419870.286551,14
1774419870.3110645,13
1774419870.3189352,12
1774419870.3409367,12
1774419870.3625326,12
1774419870.3720021,15
1774419870.386245,21
1774419870.4073992,29
1774419870.429375,39
1774419870.4381292,50
1774419870.461332,61
1774419870.4697568,70
1774419870.493638,77
1774419870.5020077,81
1774419870.5258086,82
1774419870.5345788,82
1774419870.5529106,80
1774419870.5778177,77
1774419870.5897226,73
1774419870.605958,69
1774419870.621549,65
1774419870.6345797,60
1774419870.653327,57
1774419870.673717,54
1774419870.6853445,51
1774419870.7013612,49
1774419870.727808,47
1774419870.7376256,45
1774419870.7613769,43
1774419870.7708387,40
1774419870.7947283,37
1774419870.8059278,34
1774419870.8282855,31
1774419870.8393536,28
1774419870.8611853,25
1774419870.8702245,23
1774419870.8940926,22
1774419870.9035769,21
1774419870.9253376,19
1774419870.934525,18
1774419870.9538586,18
1774419870.9680617,17
1774419870.9890943,16
1774419871.0056193,15
1774419871.0211601,14
1774419871.0368302,14
1774419871.0584853,15
1774419871.068757,19
1774419871.0848663,26
1774419871.1015766,35
1774419871.1262774,45
1774419871.1424623,56
1774419871.1611683,66
1774419871.169308,73
1774419871.191832,78
1774419871.2064996,80
1774419871.2278676,80
1774419871.2389905,79
1774419871.2597532,77
1774419871.2700732,73
1774419871.2848542,69
1774419871.3039675,65
1774419871.3238778,60
1774419871.334507,56
1774419871.3558745,53
1774419871.3719969,51
1774419871.3940501,49
1774419871.404606,47
1774419871.4301276,45
1774419871.4425726,42
1774419871.4604652,40
1774419871.4696217,37
1774419871.4944584,34
1774419871.509673,31
1774419871.527744,28
1774419871.5365047,25
1774419871.5609803,23
1774419871.573977,21
1774419871.6006336,19
1774419871.6012173,18
1774419871.62609,17
1774419871.6402402,16
1774419871.6598337,15
1774419871.670087,14
1774419871.6915243,14
1774419871.701926,13
1774419871.720292,14
1774419871.736392,17
1774419871.7594583,22
1774419871.768259,30
1774419871.7946491,40
1774419871.8161726,50
1774419871.828465,61
1774419871.8457441,70
1774419871.8641007,76
1774419871.8702202,80
1774419871.89458,82
1774419871.9106176,82
1774419871.927886,80
1774419871.940957,78
1774419871.9596543,75
1774419871.9726849,71
1774419871.9946153,66
1774419872.0066442,62
1774419872.0228283,58
1774419872.0388796,54
1774419872.0644944,51
1774419872.0697546,49
1774419872.0856848,46
1774419872.1016746,44
1774419872.12277,41
1774419872.1358104,39
1774419872.1573038,36
1774419872.1791167,32
1774419872.186568,29
1774419872.2109997,26
1774419872.2287564,24
1774419872.2379873,21
1774419872.260155,19
1774419872.2732344,18
1774419872.291286,16
1774419872.3073187,15
1774419872.3237815,14
1774419872.342098,13
1774419872.358557,12
1774419872.3710039,12
1774419872.3864443,13
1774419872.4059646,15
1774419872.419783,21
1774419872.4373147,29
1774419872.4648743,39
1774419872.4699678,49
1774419872.4956284,59
1774419872.5022912,68
1774419872.5238295,74
1774419872.5421538,78
1774419872.553237,79
1774419872.5699794,80
1774419872.5926905,79
1774419872.6110923,77
1774419872.624984,74
1774419872.6407893,70
1774419872.653742,65
1774419872.6728683,61
1774419872.687857,56
1774419872.70382,53
1774419872.7192752,50
1774419872.73642,47
1774419872.752045,45
1774419872.7723281,42
1774419872.7939003,40
1774419872.8073375,37
1774419872.8229027,34
1774419872.8404756,31
1774419872.8636746,28
1774419872.8704846,25
1774419872.8932838,23
1774419872.9023247,20
1774419872.9257548,18
1774419872.9354515,17
1774419872.9593735,16
1774419872.9684455,14
1774419872.9915342,13
1774419873.0031347,12
1774419873.0204608,11
1774419873.0394702,10
1774419873.0604136,9
1774419873.0713894,10
1774419873.0850043,13
1774419873.1033654,18
1774419873.1185787,26
1774419873.1402757,36
1774419873.1612067,45
1774419873.1758113,56
1774419873.1984315,64
1774419873.2059767,70
1774419873.2279408,74
1774419873.2445717,75
1774419873.2610617,76
1774419873.2746484,75
1774419873.294442,73
1774419873.303977,70
1774419873.3193574,66
1774419873.3344033,62
1774419873.3583896,58
1774419873.3743904,54
1774419873.3928034,51
1774419873.406368,48
1774419873.4221034,45
1774419873.442012,43
1774419873.4511714,41
1774419873.4694002,39
1774419873.485475,36
1774419873.505408,33
1774419873.5289907,30
1774419873.5426843,27
1774419873.560331,24
1774419873.5743709,22
1774419873.5933928,20
1774419873.6056776,18
1774419873.6293657,17
1774419873.640983,16
1774419873.6609879,15
1774419873.6696186,14
1774419873.6927812,13
1774419873.7023716,12
1774419873.7241998,11
1774419873.7406375,10
1774419873.7512276,10
1774419873.7716246,12
1774419873.793675,16
1774419873.804515,22
1774419873.8281217,30
1774419873.8465674,40
1774419873.8568816,48
1774419873.8777344,56
1774419873.8863063,61
1774419873.9038963,64
1774419873.9259555,66
1774419873.9363766,66
1774419873.9565291,65
1774419873.974163,63
1774419873.9964082,60
1774419874.005717,57
1774419874.0276809,53
1774419874.0404382,50
1774419874.0609121,47
1774419874.0682187,45
1774419874.0861473,43
1774419874.1024997,41
1774419874.1244946,40
1774419874.1389148,38
1774419874.151029,36
1774419874.1719947,33
1774419874.187197,30
1774419874.2066658,27
1774419874.2246563,24
1774419874.2351441,22
1774419874.2511783,20
1774419874.273383,18
1774419874.296159,17
1774419874.3032508,16
1774419874.3279817,15
1774419874.3421497,13
1774419874.3610926,13
1774419874.3706977,12
1774419874.3945003,11
1774419874.402229,10
1774419874.4211562,9
1774419874.4394934,10
1774419874.459111,12
1774419874.472195,17
1774419874.4924421,24
1774419874.503468,32
1774419874.5189002,40
1774419874.5393527,48
1774419874.5512645,54
1774419874.571414,58
1774419874.5843155,61
1774419874.6082156,61
1774419874.6214113,61
1774419874.6344573,60
1774419874.6609643,58
1774419874.6685302,56
1774419874.6935894,53
1774419874.7039378,50
1774419874.7263653,47
1774419874.742763,45
1774419874.7573476,43
1774419874.7737029,41
1774419874.7893405,40
1774419874.8097453,39
1774419874.822111,37
1774419874.8393533,34
1774419874.8581142,32
1774419874.8733027,29
1774419874.8857212,26
1774419874.9049635,24
1774419874.9198866,22
1774419874.936799,20
1774419874.95106,19
1774419874.9683015,17
1774419874.9843214,16
1774419875.0157683,15
1774419875.0290496,14
1774419875.044428,13
1774419875.0629086,12
1774419875.06822,11
1774419875.0854812,11
1774419875.1017687,11
1774419875.1200962,13
1774419875.1437218,17
1774419875.1590283,23
1774419875.1750822,30
1774419875.1909335,38
1774419875.2071822,46
1774419875.2229674,52
1774419875.2370517,57
1774419875.258699,60
1774419875.2755718,61
1774419875.2866416,61
1774419875.313654,61
1774419875.3180237,60
1774419875.344596,58
1774419875.350952,55
1774419875.3700223,52
1774419875.3943946,49
1774419875.4073,46
1774419875.427178,43
1774419875.4369376,41
1774419875.4565222,40
1774419875.4774587,39
1774419875.494498,37
1774419875.5111916,35
1774419875.5250628,32
1774419875.5409427,30
1774419875.556974,27
1774419875.572846,25
1774419875.5889256,22
1774419875.6051018,20
1774419875.6209233,18
1774419875.6368377,17
1774419875.6539662,15
1774419875.677909,14
1774419875.6848955,13
1774419875.7010367,12
1774419875.7179596,11
1774419875.7488217,10
1774419875.7509089,9
1774419875.7748353,8
1774419875.78431,9
1774419875.811391,11
1774419875.821739,15
1774419875.8385956,22
1774419875.851305,29
1774419875.878093,38
1774419875.8899055,44
1774419875.9075315,50
1774419875.9234126,54
1774419875.939487,57
1774419875.9555237,58
1774419875.971446,58
1774419875.9874249,57
1774419876.009553,56
1774419876.0206773,55
1774419876.0357363,52
1774419876.0521877,49
1774419876.0700965,46
1774419876.0847487,44
1774419876.101333,41
1774419876.1225781,40
1774419876.1404274,39
1774419876.1607838,37
1774419876.1784782,35
1774419876.1943913,33
1774419876.2031083,31
1774419876.2265053,28
1774419876.2424603,26
1774419876.2611356,23
1774419876.2744915,21
1774419876.2887142,19
1774419876.3021748,17
1774419876.3205986,16
1774419876.3412352,14
1774419876.3543918,13
1774419876.3753686,12
1774419876.3865185,11
1774419876.4024174,11
1774419876.422325,10
1774419876.4346776,9
1774419876.4516225,8
1774419876.4778767,7
1774419876.489577,8
1774419876.5146394,9
1774419876.521966,14
1774419876.5445988,20
1774419876.5523107,27
1774419876.5726206,35
1774419876.594429,42
1774419876.604719,49
1774419876.6264443,53
1774419876.6426258,55
1774419876.6583538,56
1774419876.6780345,56
1774419876.6861646,55
1774419876.7113676,54
1774419876.7223349,52
1774419876.742224,50
1774419876.7543185,48
1774419876.7777646,45
1774419876.794445,42
1774419876.8098838,40
1774419876.8264349,40
1774419876.8444967,38
1774419876.8549366,37
1774419876.8726451,36
1774419876.8849561,34
1774419876.9018528,32
1774419876.9187202,29
1774419876.9362495,27
1774419876.9509246,25
1774419876.9681308,23
1774419876.9958966,21
1774419877.0110154,19
1774419877.0175548,18
1774419877.041454,16
1774419877.057407,15
1774419877.0739002,14
1774419877.0858893,14
1774419877.101763,13
1774419877.1207035,12
1774419877.1391046,11
1774419877.1612082,10
1774419877.1694932,9
1774419877.1907718,9
1774419877.2114322,9
1774419877.2188702,12
1774419877.2466938,16
1774419877.2574003,22
1774419877.2683496,29
1774419877.2858806,37
1774419877.3124406,42
1774419877.318103,47
1774419877.348769,50
1774419877.3530347,51
1774419877.3763347,50
1774419877.3885367,50
1774419877.4096763,49
1774419877.4180298,47
1774419877.4404893,45
1774419877.4565494,43
1774419877.4685316,41
1774419877.4879596,40
1774419877.5044763,39
1774419877.5191905,38
1774419877.5381396,37
1774419877.554765,36
1774419877.5764444,35
1774419877.5900686,34
1774419877.6071854,32
1774419877.6221254,30
1774419877.6342547,28
1774419877.6508853,26
1774419877.678415,24
1774419877.6864104,22
1774419877.7105203,21
1774419877.7211993,19
1774419877.7456424,17
1774419877.7532232,16
1774419877.774513,14
1774419877.790568,13
1774419877.8065197,12
1774419877.8205621,11
1774419877.8386166,10
1774419877.8545282,9
1774419877.869821,8
1774419877.8903427,8
1774419877.901418,10
1774419877.9206452,15
1774419877.9403574,21
1774419877.9579756,28
1774419877.9711502,36
1774419877.989027,43
1774419878.0121868,49
1774419878.022009,53
1774419878.0457594,55
1774419878.054854,55
1774419878.0678632,56
1774419878.0851183,55
1774419878.1041503,54
1774419878.1200287,52
1774419878.140059,50
1774419878.1508305,48
1774419878.173377,46
1774419878.1902792,44
1774419878.2024374,43
1774419878.2195969,42
1774419878.2406209,41
1774419878.2611191,40
1774419878.2773082,40
1774419878.284446,38
1774419878.30405,36
1774419878.323232,34
1774419878.340393,32
1774419878.358453,30
1774419878.376696,28
1774419878.3902178,27
1774419878.409614,25
1774419878.4207032,24
1774419878.4416873,23
1774419878.4540071,22
1774419878.4707847,21
1774419878.4862432,20
1774419878.505754,19
1774419878.520387,19
1774419878.5376709,18
1774419878.5528164,17
1774419878.5743237,18
1774419878.5873585,21
1774419878.6008916,25
1774419878.6290638,32
1774419878.6450322,40
1774419878.6520896,47
1774419878.668767,54
1774419878.6857054,60
1774419878.7116508,64
1774419878.7259307,66
1774419878.735394,66
1774419878.7580416,66
1774419878.7717874,66
1774419878.7906299,65
1774419878.8076468,63
1774419878.8230815,61
1774419878.840608,58
1774419878.854099,55
1774419878.8764467,52
1774419878.8881607,50
1774419878.9070036,48
1774419878.918727,47
1774419878.9360418,46
1774419878.954505,44
1774419878.9761024,42
1774419878.984155,40
1774419879.0110161,38
1774419879.028015,35
1774419879.050102,33
1774419879.0525107,31
1774419879.0676289,29
1774419879.0859656,27
1774419879.1014605,25
1774419879.1277263,24
1774419879.1420784,23
1774419879.1587062,22
1774419879.168912,21
1774419879.1902273,20
1774419879.2061057,19
1774419879.2214534,18
1774419879.2372289,17
1774419879.2519734,17
1774419879.267461,18
1774419879.2855988,22
1774419879.3071208,28
1774419879.3177161,35
1774419879.344615,42
1774419879.3584404,50
1774419879.3845797,57
1774419879.3846297,61
1774419879.4110773,64
1774419879.4279287,65
1774419879.440675,65
1774419879.4610798,64
1774419879.476228,63
1774419879.492094,62
1774419879.5082479,59
1774419879.525822,57
1774419879.5365155,54
1774419879.5600822,51
1774419879.5722632,49
1774419879.589861,47
1774419879.6041298,45
1774419879.6192656,44
1774419879.6355658,42
1774419879.6565895,40
1774419879.6677997,39
1774419879.688131,36
1774419879.7080898,33
1774419879.7176113,31
1774419879.7444603,28
1774419879.7514253,26
1774419879.7776403,24
1774419879.7936323,23
1774419879.8095837,21
1774419879.8259428,20
1774419879.840939,19
1774419879.8520834,18
1774419879.8706563,17
1774419879.8891916,16
1774419879.905149,15
1774419879.9210792,14
1774419879.9370193,13
1774419879.9531553,13
1774419879.971709,14
1774419879.9855344,17
1774419880.000896,23
1774419880.0217917,30
1774419880.0444994,38
1774419880.0592813,45
1774419880.068992,52
1774419880.0862012,57
1774419880.1029742,59
1774419880.1208696,60
1774419880.1427205,60
1774419880.1528745,60
1774419880.176723,59
1774419880.1915317,57
1774419880.207747,54
1774419880.2237637,52
1774419880.2399542,49
1774419880.2519805,46
1774419880.2715526,44
1774419880.2891784,42
1774419880.3115706,41
1774419880.3279216,40
1774419880.3343248,39
1774419880.3612583,38
1774419880.377764,35
1774419880.3929536,33
1774419880.4141808,31
1774419880.4249735,28
1774419880.4370549,26
1774419880.4525096,24
1774419880.47774,23
1774419880.4859073,21
1774419880.511026,20
1774419880.5203474,19
1774419880.5388708,18
1774419880.5506675,17
1774419880.574173,16
1774419880.590203,15
1774419880.6021957,14
1774419880.6215687,14
1774419880.6342547,13
1774419880.6552222,13
1774419880.6685636,14
1774419880.6859965,17
1774419880.7112613,23
1774419880.7258282,30
1774419880.7374551,38
1774419880.7613597,44
1774419880.773429,51
1774419880.7907104,54
1774419880.8114185,56
1774419880.8218286,57
1774419880.8443427,56
1774419880.856165,55
1774419880.875373,53
1774419880.8859994,51
1774419880.9083648,49
1774419880.924617,47
1774419880.9404182,44
1774419880.964086,42
1774419880.972212,41
1774419880.9882271,40
1774419881.0010138,40
1774419881.0199368,39
1774419881.0360763,38
1774419881.0561354,36
1774419881.068154,34
1774419881.0846741,32
1774419881.1015844,30
1774419881.1216412,28
1774419881.145612,26
1774419881.158112,24
1774419881.1777692,23
1774419881.1953528,21
1774419881.21126,20
1774419881.224762,20
1774419881.2374837,19
1774419881.254169,18
1774419881.272596,17
1774419881.2864747,16
1774419881.307229,16
1774419881.318472,15
1774419881.3389866,15
1774419881.3552227,17
1774419881.3776941,20
1774419881.3870053,26
1774419881.4087403,33
1774419881.4195123,40
1774419881.4342778,48
1774419881.4660227,54
1774419881.4692488,58
1774419881.4945354,61
1774419881.511265,61
1774419881.5269115,61
1774419881.542486,61
1774419881.5600226,59
1774419881.5729387,58
1774419881.5913844,55
1774419881.6028705,53
1774419881.6227922,51
1774419881.636118,49
1774419881.656066,47
1774419881.6718857,46
1774419881.6879938,45
1774419881.701895,43
1774419881.7200992,42
1774419881.7343,40
1774419881.7575107,39
1774419881.7672992,37
1774419881.788041,34
1774419881.8106596,32
1774419881.8309424,30
1774419881.8368886,28
1774419881.8610408,27
1774419881.8778422,26
1774419881.8948433,24
1774419881.9119377,23
1774419881.9277847,22
1774419881.944431,21
1774419881.9610322,21
1774419881.9761446,20
1774419881.9920702,19
1774419882.0037608,18
1774419882.0203674,18
1774419882.039563,20
1774419882.053981,24
1774419882.0707119,30
1774419882.0841267,37
1774419882.1018074,44
1774419882.128755,52
1774419882.1343668,58
1774419882.150911,62
1774419882.1701367,65
1774419882.1977174,65
1774419882.21121,66
1774419882.2197585,65
1774419882.2445326,64
1774419882.26104,63
1774419882.2778716,60
1774419882.2903757,58
1774419882.3094862,55
1774419882.3190582,53
1774419882.3410215,51
1774419882.35626,49
1774419882.371999,48
1774419882.3871627,46
1774419882.403994,45
1774419882.4189951,43
1774419882.43505,41
1774419882.4539485,39
1774419882.470953,37
1774419882.4962926,35
1774419882.501817,32
1774419882.5252464,31
1774419882.5351946,29
1774419882.5622485,27
1774419882.5677,26
1774419882.5865128,25
1774419882.6034849,24
1774419882.6248968,23
1774419882.6416233,22
1774419882.658337,21
1774419882.667392,20
1774419882.6891117,19
1774419882.7068486,19
1774419882.7235973,20
1774419882.7354972,23
1774419882.7541628,28
1774419882.7730308,35
1774419882.7896795,42
1774419882.8099113,50
1774419882.8190353,57
1774419882.836405,62
1774419882.857481,65
1774419882.874721,67
1774419882.892273,67
1774419882.9017115,67
1774419882.9243827,66
1774419882.93615,65
1774419882.951657,63
1774419882.9672768,60
1774419882.9907444,58
1774419883.0039637,55
1774419883.0230567,52
1774419883.0390522,50
1774419883.064674,49
1774419883.0709243,47
1774419883.0847507,46
1774419883.1025825,44
1774419883.1223996,42
1774419883.1375935,40
1774419883.1582584,38
1774419883.1782067,35
1774419883.1903012,33
1774419883.2109056,31
1774419883.2307491,29
1774419883.2381873,27
1774419883.2604809,26
1774419883.2703326,24
1774419883.291597,23
1774419883.307441,22
1774419883.3267932,21
1774419883.33499,20
1774419883.3612585,19
1774419883.370946,18
1774419883.3909445,17
1774419883.4011812,17
1774419883.418842,18
1774419883.4355223,21
1774419883.4548519,26
1774419883.4678109,33
1774419883.487362,40
1774419883.5059679,49
1774419883.521295,56
1774419883.5338945,62
1774419883.5578976,65
1774419883.571562,67
1774419883.5912955,68
1774419883.6106138,68
1774419883.6296322,68
1774419883.637876,67
1774419883.659839,65
1774419883.6705842,62
1774419883.6895602,59
1774419883.7022688,56
1774419883.722774,54
1774419883.7342026,51
1774419883.75535,50
1774419883.7712636,48
1774419883.7871819,47
1774419883.803947,45
1774419883.8202274,43
1774419883.8346083,40
1774419883.8526947,39
1774419883.8778043,36
1774419883.8841777,34
1774419883.9109879,32
1774419883.9263484,30
1774419883.9464064,28
1774419883.9548454,27
1774419883.9675655,26
1774419883.9953752,25
1774419884.0047343,24
1774419884.018945,23
1774419884.0346339,21
1774419884.0592234,20
1774419884.0712461,19
1774419884.0854013,18
1774419884.1011648,18
1774419884.11811,18
1774419884.1346686,20
1774419884.1567104,24
1774419884.1682076,31
1774419884.1873653,39
1774419884.2033138,46
1774419884.2193053,55
1774419884.2337732,61
1774419884.2632194,66
1774419884.271853,68
1774419884.294609,70
1774419884.3094206,70
1774419884.3258655,70
1774419884.344507,69
1774419884.362635,68
1774419884.3744426,65
1774419884.3913507,63
1774419884.4037673,60
1774419884.418422,57
1774419884.4342034,55
1774419884.4506588,53
1774419884.4738767,52
1774419884.485498,51
1774419884.5022504,49
1774419884.5254962,47
1774419884.5338337,44
1774419884.5647414,42
1774419884.5678434,40
1774419884.5858712,38
1774419884.6016448,35
1774419884.6230032,33
1774419884.6363,31
1774419884.6592996,30
1774419884.672082,28
1774419884.693034,27
1774419884.711284,26
1774419884.720787,25
1774419884.744289,24
1774419884.7616673,23
1774419884.7752783,21
1774419884.794538,20
1774419884.80602,20
1774419884.8261197,20
1774419884.837593,22
1774419884.8570244,27
1774419884.8697665,34
1774419884.8914263,41
1774419884.901774,49
1774419884.9308457,58
1774419884.9357052,64
1774419884.9530685,69
1774419884.9671507,72
1774419884.9853113,73
1774419885.0013335,73
1774419885.0173752,73
1774419885.0337784,72
1774419885.0545185,70
1774419885.0683787,68
1774419885.0848703,65
1774419885.1026857,61
1774419885.1276624,58
1774419885.144605,56
1774419885.1604412,53
1774419885.1764672,51
1774419885.1854854,50
1774419885.2020812,48
1774419885.224532,45
1774419885.237901,43
1774419885.2564723,40
1774419885.2697368,38
1774419885.2886655,35
1774419885.3028786,33
1774419885.3204944,31
1774419885.336169,28
1774419885.3554957,27
1774419885.3687043,25
1774419885.3906834,24
1774419885.4011672,23
1774419885.4205108,22
1774419885.4384427,20
1774419885.4506207,19
1774419885.4710424,18
1774419885.4894207,17
1774419885.5024495,16
1774419885.523459,15
1774419885.544697,17
1774419885.5596635,21
1774419885.5738227,27
1774419885.5924597,35
1774419885.6070526,43
1774419885.6220443,52
1774419885.6367114,59
1774419885.6563296,65
1774419885.6698546,69
1774419885.690123,70
1774419885.7027402,71
1774419885.720555,71
1774419885.7356317,70
1774419885.7525775,68
1774419885.76759,66
1774419885.78438,63
1774419885.800807,60
1774419885.8213606,57
1774419885.8443758,54
1774419885.8505135,52
1774419885.8777027,50
1774419885.8912923,48
1774419885.9099848,46
1774419885.921011,44
1774419885.9428246,41
1774419885.9598858,40
1774419885.96762,37
1774419885.9911013,34
1774419886.0070405,31
1774419886.017292,29
1774419886.0381434,27
1774419886.0541196,25
1774419886.0702918,24
1774419886.084464,22
1774419886.1015952,21
1774419886.119294,20
1774419886.13457,19
1774419886.1529949,18
1774419886.1670108,17
1774419886.1882088,16
1774419886.201098,15
1774419886.2295506,15
1774419886.2455568,15
1774419886.2599788,16
1774419886.2776375,20
1774419886.2925444,27
1774419886.306773,35
1774419886.3246255,43
1774419886.3405168,52
1774419886.3566601,59
1774419886.371778,64
1774419886.388961,67
1774419886.4075327,68
1774419886.4208946,68
1774419886.436758,67
1774419886.4581304,66
1774419886.46864,64
1774419886.490584,61
1774419886.507639,58
1774419886.531715,55
1774419886.5342255,52
1774419886.5631733,50
1774419886.5674706,49
1774419886.594801,47
1774419886.6077805,46
1774419886.62677,44
1774419886.6425738,42
1774419886.658586,40
1774419886.6746142,37
1774419886.695862,35
1774419886.706546,32
1774419886.725179,29
1774419886.7385867,27
1774419886.7546904,25
1774419886.770657,23
1774419886.791893,22
1774419886.8024013,21
1774419886.81837,19
1774419886.8339007,18
1774419886.8589742,17
1774419886.87067,16
1774419886.8943417,15
1774419886.9085445,14
1774419886.9280856,14
1774419886.9383707,15
1774419886.9522245,18
1774419886.9670062,23
1774419886.9860854,31
1774419887.0003788,39
1774419887.0169997,48
1774419887.0367415,56
1774419887.057082,62
1774419887.0731902,66
1774419887.0838318,68
1774419887.1008124,68
1774419887.1223645,68
1774419887.1384315,67
1774419887.152106,65
1774419887.1738389,62
1774419887.189502,59
1774419887.2014928,57
1774419887.2179463,54
1774419887.2368698,52
1774419887.2506573,50
1774419887.2701075,49
1774419887.2943075,47
1774419887.3037217,46
1774419887.3288417,44
1774419887.3382902,41
1774419887.360797,40
1774419887.3688433,37
1774419887.3932621,35
1774419887.407806,32
1774419887.4242272,30
1774419887.4403665,28
1774419887.4566336,26
1774419887.4774113,25
1774419887.4944634,24
1774419887.5108562,23
1774419887.522731,22
1774419887.5360894,21
1774419887.5528176,20
1774419887.5679243,19
1774419887.5924644,18
1774419887.6019146,18
1774419887.618028,19
1774419887.6393588,21
1774419887.6555932,27
1774419887.6698065,34
1774419887.6924202,42
1774419887.7007034,51
1774419887.721634,60
1774419887.7345295,66
1774419887.7589784,71
1774419887.771479,73
1774419887.789743,74
1774419887.8057733,74
1774419887.8186264,73
1774419887.8381257,72
1774419887.851302,70
1774419887.8803859,67
1774419887.885653,64
1774419887.9089496,61
1774419887.9216573,58
1774419887.9443595,55
1774419887.9604158,53
1774419887.9770594,51
1774419887.993007,49
1774419888.0059805,47
1774419888.0277781,44
1774419888.0354543,42
1774419888.0604165,40
1774419888.067744,37
1774419888.0863833,34
1774419888.1019683,32
1774419888.1244426,29
1774419888.1404817,27
1774419888.1530392,26
1774419888.1683652,24
1774419888.187421,23
1774419888.2011962,22
1774419888.2179604,21
1774419888.2347815,19
1774419888.2519493,18
1774419888.2688084,17
1774419888.2916055,17
1774419888.3107402,17
1774419888.321601,20
1774419888.3374794,25
1774419888.3624735,33
1774419888.3726683,40
1774419888.388568,49
1774419888.4037573,57
1774419888.4233294,64
1774419888.4400127,68
1774419888.4589322,71
1774419888.4709928,72
1774419888.4894333,72
1774419888.5030951,71
1774419888.520714,70
1774419888.5358374,68
1774419888.551735,65
1774419888.5684206,61
1774419888.584541,58
1774419888.6006021,55
1774419888.616863,52
1774419888.6462061,49
1774419888.6609566,47
1774419888.6777868,45
1774419888.6955914,43
1774419888.7095542,40
1774419888.719588,38
1774419888.743755,35
1774419888.7562604,32
1774419888.768124,29
1774419888.785048,27
1774419888.805123,25
1774419888.823797,23
1774419888.837945,21
1774419888.8521276,19
1774419888.8711915,18
1774419888.8861814,16
1774419888.9039404,15
1774419888.9197834,14
1774419888.9357677,13
1774419888.9509199,12
1774419888.9678779,11
1774419888.9835348,10
1774419889.0112758,11
1774419889.0168939,14
1774419889.0459678,19
1774419889.0604424,27
1774419889.0669315,35
1774419889.0845256,43
1774419889.1010807,52
1774419889.126859,58
1774419889.1362002,61
1774419889.158838,63
1774419889.174852,64
1774419889.1901083,64
1774419889.2061622,63
1774419889.2211082,61
1774419889.2371826,59
1774419889.2582817,56
1774419889.2761533,54
1774419889.2862723,51
1774419889.3093286,48
1774419889.3173249,46
1774419889.3411894,44
1774419889.3501759,42
1774419889.3774757,41
1774419889.3894432,39
1774419889.410721,37
1774419889.427101,35
1774419889.44461,32
1774419889.4562309,29
1774419889.4762397,27
1774419889.4901724,25
1774419889.5082219,23
1774419889.5176232,21
1774419889.5360918,20
1774419889.5565672,19
1774419889.5705378,17
1774419889.5879529,16
1774419889.6042433,15
1774419889.6202602,14
1774419889.6380978,13
1774419889.6515477,12
1774419889.6676362,11
1774419889.6837738,11
1774419889.7020998,12
1774419889.7190342,15
1774419889.736436,21
1774419889.7525616,28
1774419889.7724094,37
1774419889.7916708,44
1774419889.8076723,51
1774419889.8202963,56
1774419889.8433902,58
1774419889.8524232,59
1774419889.8754566,59
1774419889.884163,59
1774419889.907575,57
1774419889.9235194,55
1774419889.9351792,53
1774419889.9550498,50
1774419889.9674094,47
1774419889.9851158,45
1774419890.002729,43
1774419890.0193968,41
1774419890.0355518,40
1774419890.051566,40
1774419890.06804,38
1774419890.0843859,36
1774419890.1017003,34
1774419890.1188083,31
1774419890.1363869,29
1774419890.1505961,26
1774419890.1723838,24
1774419890.18519,22
1774419890.2103274,21
1774419890.2205138,20
1774419890.2352047,18
1774419890.26242,17
1774419890.2720754,17
1774419890.289744,16
1774419890.3055007,15
1774419890.322412,14
1774419890.3360667,13
1774419890.3554726,12
1774419890.3708363,12
1774419890.3928947,14
1774419890.402348,19
1774419890.420352,25
1774419890.43979,32
1774419890.452925,40
1774419890.4771538,47
1774419890.486513,54
1774419890.5103185,57
1774419890.5206587,60
1774419890.5361001,60
1774419890.5502977,60
1774419890.5715187,60
1774419890.5928907,58
1774419890.6091368,56
1774419890.624864,54
1774419890.6444633,51
1774419890.6569831,49
1774419890.6764352,46
1774419890.6881669,44
1774419890.7025974,43
1774419890.7199044,42
1774419890.7360246,40
1774419890.7537155,39
1774419890.7673151,37
1774419890.7910438,35
1774419890.8108654,32
1774419890.8257933,30
1774419890.8363874,28
1774419890.8543224,26
1774419890.8777044,24
1774419890.8857977,22
1774419890.900914,21
1774419890.921523,20
1774419890.9444368,19
1774419890.9500773,18
1774419890.9732997,17
1774419890.9879305,16
1774419891.0053294,15
1774419891.0167634,14
1774419891.0379882,14
1774419891.0548706,15
1774419891.06947,18
1774419891.083651,23
1774419891.1005552,30
1774419891.1217232,38
1774419891.136707,45
1774419891.1565762,52
1774419891.1712534,58
1774419891.1880827,61
1774419891.2004936,62
1774419891.2219665,63
1774419891.2339785,63
1774419891.2557633,62
1774419891.2772157,61
1774419891.2879376,59
1774419891.309323,56
1774419891.3213847,53
1774419891.3412092,51
1774419891.3502953,48
1774419891.372421,46
1774419891.3893094,44
1774419891.4052563,43
1774419891.4190664,41
1774419891.4372966,40
1774419891.4568791,38
1774419891.4702237,35
1774419891.48534,33
1774419891.5025024,30
1774419891.5175438,28
1774419891.5385156,26
1774419891.5549102,24
1774419891.5765147,23
1774419891.5883274,21
1774419891.6129467,20
1774419891.624453,19
1774419891.6334805,18
1774419891.6544998,17
1774419891.6770253,16
1774419891.6871061,15
1774419891.7088108,15
1774419891.7175462,15
1774419891.7373068,17
1774419891.750099,21
1774419891.7726383,27
1774419891.785376,35
1774419891.8056996,42
1774419891.823303,50
1774419891.8360596,57
1774419891.851794,61
1774419891.8672733,64
1774419891.8834603,65
1774419891.9044385,65
1774419891.9230163,65
1774419891.9445438,64
1774419891.950273,63
1774419891.9678218,60
1774419891.9837997,58
1774419892.011217,55
1774419892.0236676,52
1774419892.0333724,50
1774419892.0522084,48
1774419892.0731106,46
1774419892.0841203,45
1774419892.1004837,43
1774419892.1171002,41
1774419892.1445687,40
1774419892.1500478,37
1774419892.1695027,35
1774419892.1842425,32
1774419892.200329,30
1774419892.216747,28
1774419892.2445824,26
1774419892.2621717,25
1774419892.2779677,23
1774419892.295631,22
1774419892.3115382,21
1774419892.3176148,20
1774419892.341606,19
1774419892.3502386,18
1774419892.3753934,18
1774419892.3857427,17
1774419892.4075146,18
1774419892.4226527,21
1774419892.4388478,26
1774419892.4543967,33
1774419892.4727373,40
1774419892.486337,48
1774419892.5042992,56
1774419892.5177317,61
1774419892.534824,65
1774419892.5499852,67
1774419892.5671136,68
1774419892.5833862,68
1774419892.6066298,68
1774419892.61736,67
1774419892.6443546,65
1774419892.6603608,63
1774419892.6779325,60
1774419892.6944065,57
1774419892.7107222,54
1774419892.7256432,51
1774419892.7433913,49
1774419892.7590163,48
1774419892.7778368,46
1774419892.786872,44
1774419892.8071437,41
1774419892.822992,40
1774419892.840172,37
1774419892.853817,35
1774419892.8708136,32
1774419892.8871026,30
1774419892.9028282,28
1774419892.9180806,26
1774419892.9380155,24
1774419892.950891,23
1774419892.9668682,22
1774419892.9833024,21
1774419893.0072594,20
1774419893.018207,19
1774419893.0444682,18
1774419893.0567665,17
1774419893.0677307,16
1774419893.0857122,17
1774419893.100421,19
1774419893.1209884,24
1774419893.1428103,31
1774419893.1587467,39
1774419893.176944,47
1774419893.1911004,55
1774419893.205115,61
1774419893.222923,66
1774419893.2359526,68
1774419893.2546792,69
1774419893.2858012,70
1774419893.2859142,70
1774419893.3028858,69
1774419893.3181682,67
1774419893.3342032,64
1774419893.350465,61
1774419893.3729882,58
1774419893.3884535,55
1774419893.4112191,53
1774419893.4288366,50
1774419893.4449618,48
1774419893.4518483,47
1774419893.4669695,45
1774419893.4971611,42
1774419893.5091894,40
1774419893.517661,38
1774419893.5401275,35
1774419893.5563946,32
1774419893.5745215,30
1774419893.5883124,28
1774419893.6043339,26
1774419893.6209521,24
1774419893.6396556,23
1774419893.651358,21
1774419893.6676984,20
1774419893.6859288,19
1774419893.7086673,18
1774419893.7180626,17
1774419893.7407823,16
1774419893.750623,14
1774419893.7779315,13
1774419893.78656,12
1774419893.8024824,12
1774419893.830305,15
1774419893.836116,19
1774419893.8586836,26
1774419893.8754373,34
1774419893.890187,43
1774419893.903868,51
1774419893.930593,59
1774419893.937905,64
1774419893.953031,66
1774419893.9705162,68
1774419893.985334,69
1774419894.0009642,68
1774419894.0190103,67
1774419894.043477,66
1774419894.0542393,63
1774419894.0669374,60
1774419894.0857172,57
1774419894.1004257,54
1774419894.1228797,52
1774419894.139974,50
1774419894.1499329,48
1774419894.1722238,46
1774419894.1887412,44
1774419894.2070336,42
1774419894.223115,40
1774419894.2369268,38
1774419894.2551486,35
1774419894.271127,32
1774419894.2899723,30
1774419894.3111727,27
1774419894.320537,25
1774419894.3398392,24
1774419894.350687,22
1774419894.371834,21
1774419894.3897207,20
1774419894.4015787,19
1774419894.4242492,18
1774419894.4359028,17
1774419894.45677,16
1774419894.4780443,15
1774419894.4920306,14
1774419894.5104318,13
1774419894.5229378,13
1774419894.5418289,13
1774419894.551538,15
1774419894.576677,20
1774419894.5891247,27
1774419894.6067119,35
1774419894.6214797,44
1774419894.6361375,52
1774419894.6530726,59
1774419894.666556,64
1774419894.6852615,66
1774419894.7028704,67
1774419894.717064,67
1774419894.7335253,66
1774419894.7575634,64
1774419894.776351,62
1774419894.7833474,59
1774419894.8047018,56
1774419894.8244412,54
1774419894.8400087,52
1774419894.8541763,50
1774419894.876935,49
1774419894.8890784,48
1774419894.9080245,46
1774419894.9232945,44
1774419894.9346197,42
1774419894.9511268,40
1774419894.977857,38
1774419894.9864047,35
1774419894.9998927,32
1774419895.0200088,30
1774419895.038482,28
1774419895.052112,26
1774419895.068123,25
1774419895.0840957,24
1774419895.100924,23
1774419895.126115,22
1774419895.1444492,21
1774419895.1610491,20
1774419895.1793919,19
1774419895.1895921,18
1774419895.2109942,17
1774419895.2219932,16
1774419895.2443562,16
1774419895.2598336,17
1774419895.2702973,20
1774419895.2852647,26
1774419895.306268,33
1774419895.3209083,41
1774419895.340206,50
1774419895.3559484,59
1774419895.3665292,65
1774419895.388127,68
1774419895.3998828,70
1774419895.428626,71
1774419895.4358537,70
1774419895.4511986,69
1774419895.466778,67
1774419895.49403,64
1774419895.5062277,61
1774419895.5311844,59
1774419895.542923,56
1774419895.5610917,54
1774419895.572993,52
1774419895.590901,51
1774419895.611265,50
1774419895.6216626,48
1774419895.6338196,46
1774419895.6562722,43
1774419895.6750345,41
1774419895.6875868,39
1774419895.7068741,36
1774419895.7191708,33
1774419895.7391307,31
1774419895.7600071,29
1774419895.77079,27
1774419895.7871487,25
1774419895.8004165,24
1774419895.819186,23
1774419895.8345704,22
1774419895.8510468,21
1774419895.8671012,20
1774419895.8844655,19
1774419895.9086533,18
1774419895.9182234,17
1774419895.938625,16
1774419895.9621797,18
1774419895.976655,21
1774419895.9869974,27
1774419896.0001411,35
1774419896.0234911,43
1774419896.042129,53
1774419896.053796,61
1774419896.0745525,68
1774419896.08416,72
1774419896.1010623,75
1774419896.122183,75
1774419896.136784,75
1774419896.154072,74
1774419896.1682415,73
1774419896.1871383,70
1774419896.202072,67
1774419896.2181294,64
1774419896.234186,61
1774419896.25552,58
1774419896.2739222,56
1774419896.29275,54
1774419896.3064203,52
1774419896.3169413,51
1774419896.3458827,48
1774419896.3582597,46
1774419896.368382,43
1774419896.3901713,40
1774419896.4154565,38
1774419896.4199605,35
1774419896.442072,33
1774419896.4582615,30
1774419896.4679992,28
1774419896.4847376,27
1774419896.5043406,25
1774419896.5201557,24
1774419896.5337224,22
1774419896.5555077,21
1774419896.566622,20
1774419896.5845966,19
1774419896.600257,18
1774419896.6240568,17
1774419896.6440039,17
1774419896.6601255,18
1774419896.6790392,22
1774419896.6948128,28
1774419896.7064018,36
1774419896.7203445,45
1774419896.7443712,55
1774419896.7575917,64
1774419896.7762418,71
1774419896.7924201,76
1774419896.8082333,78
1774419896.8224614,79
1774419896.840357,79
1774419896.853873,78
1774419896.872237,76
1774419896.8994732,74
1774419896.9039178,71
1774419896.9254665,67
1774419896.9336612,64
1774419896.9515705,61
1774419896.9665747,58
1774419896.9901888,56
1774419896.9997575,54
1774419897.0210462,51
1774419897.04342,49
1774419897.0560553,46
1774419897.0672414,43
1774419897.0833983,40
1774419897.10193,38
1774419897.1229486,35
1774419897.1422634,32
1774419897.1578481,29
1774419897.173467,27
1774419897.1924024,25
1774419897.2026865,24
1774419897.222144,22
1774419897.2492468,21
1774419897.2543771,20
1774419897.2702665,18
1774419897.2985542,17
1774419897.3019865,16
1774419897.330368,15
1774419897.334385,14
1774419897.3510225,13
1774419897.3664865,15
1774419897.3978345,20
1774419897.4110525,27
1774419897.4276085,36
1774419897.4451659,46
1774419897.4561872,56
1774419897.4708157,65
1774419897.4976583,72
1774419897.5008752,76
1774419897.5258293,78
1774419897.5421045,79
1774419897.557802,78
1774419897.570388,77
1774419897.5901632,74
1774419897.6013148,71
1774419897.6217787,68
1774419897.6380057,64
1774419897.653787,61
1774419897.6687474,58
1774419897.6849136,55
1774419897.70098,53
1774419897.7169187,51
1774419897.7333996,48
1774419897.751513,46
1774419897.76638,43
1774419897.7860754,40
1774419897.8001482,38
1774419897.8291929,35
1774419897.8424923,32
1774419897.8610187,29
1774419897.8772533,27
1774419897.8907313,25
1774419897.9065585,23
1774419897.9224148,22
1774419897.9340353,21
1774419897.9543262,20
1774419897.9683597,19
1774419897.9898736,18
1774419898.0019224,17
1774419898.0180633,16
1774419898.0344129,15
1774419898.0591404,14
1774419898.0676994,14
1774419898.0840669,15
1774419898.1012094,19
1774419898.1242912,26
1774419898.1338148,35
1774419898.1597002,44
1774419898.1690404,55
1774419898.193561,64
1774419898.2003696,71
1774419898.224309,75
1774419898.240298,77
1774419898.251359,77
1774419898.272195,76
1774419898.2882032,74
1774419898.304224,72
1774419898.3202863,68
1774419898.3362958,65
1774419898.3522825,61
1774419898.3698037,58
1774419898.3842416,55
1774419898.4037952,53
1774419898.4318843,52
1774419898.4387968,50
1774419898.457944,48
1774419898.4705985,46
1774419898.4963324,43
1774419898.5017915,40
1774419898.516686,38
1774419898.534099,34
1774419898.5541527,31
1774419898.5735807,29
1774419898.5922995,26
1774419898.5997322,25
1774419898.6243644,23
1774419898.6445932,22
1774419898.656401,21
1774419898.6723347,20
1774419898.6896653,19
1774419898.7043579,18
1774419898.7202852,17
1774419898.7364576,16
1774419898.7711546,15
1774419898.7736733,15
1774419898.7938433,17
1774419898.8040156,22
1774419898.8199801,29
1774419898.8406324,38
1774419898.8568327,47
1774419898.8677857,58
1774419898.894529,66
1774419898.9030662,73
1774419898.927712,76
1774419898.9355876,78
1774419898.9594567,78
1774419898.9669762,76
1774419898.9917758,74
1774419899.0078137,71
1774419899.0239198,68
1774419899.0412297,64
1774419899.0560505,61
1774419899.0669358,58
1774419899.0832558,55
1774419899.1022642,53
1774419899.1202235,52
1774419899.13509,50
1774419899.1509194,48
1774419899.1673813,46
1774419899.187211,43
1774419899.2108662,40
1774419899.2250001,38
1774419899.2453058,35
1774419899.2612674,32
1774419899.270543,30
1774419899.2948265,28
1774419899.3092744,26
1774419899.3269558,24
1774419899.336356,23
1774419899.360319,22
1774419899.366778,21
1774419899.3909426,20
1774419899.4012706,19
1774419899.4224796,18
1774419899.435188,17
1774419899.450338,17
1774419899.4702313,19
1774419899.4864323,23
1774419899.5092788,30
1774419899.5259798,39
1774419899.5395315,48
1774419899.5508497,59
1774419899.570337,69
1774419899.5916107,76
1774419899.6026657,81
1774419899.6223755,83
1774419899.6385107,84
1774419899.6598325,83
1774419899.6758442,81
1774419899.6944015,79
1774419899.7032182,75
1774419899.7255015,71
1774419899.7364242,67
1774419899.7508206,63
1774419899.7684107,59
1774419899.7886407,56
1774419899.8041613,54
1774419899.8198023,52
1774419899.836639,49
1774419899.852355,47
1774419899.868343,44
1774419899.884831,41
1774419899.903496,38
1774419899.9277234,35
1774419899.9479547,32
1774419899.9501293,29
1774419899.9703293,27
1774419899.9943523,24
1774419900.005294,23
1774419900.0168738,21
1774419900.0350485,20
1774419900.0514421,19
1774419900.0665884,18
1774419900.0837631,17
1774419900.1029053,16
1774419900.1242328,15
1774419900.1403797,15
1774419900.1563525,16
1774419900.17046,20
1774419900.1954606,26
1774419900.2086887,35
1774419900.2270868,45
1774419900.2402782,56
1774419900.2524917,66
1774419900.266274,74
1774419900.2844105,79
1774419900.3025904,81
1774419900.316412,84
1774419900.3431118,83
1774419900.3592656,81
1774419900.3688135,78
1774419900.3963258,74
1774419900.4057825,69
1774419900.4282572,63
1774419900.4397342,59
1774419900.4612317,55
1774419900.4696333,52
1774419900.4915426,49
1774419900.5018117,47
1774419900.5234187,45
1774419900.534466,42
1774419900.5555477,40
1774419900.5675595,37
1774419900.5864809,34
1774419900.600095,31
1774419900.618995,28
1774419900.6440089,25
1774419900.6513739,23
1774419900.6713982,20
1774419900.683062,19
1774419900.7033653,17
1774419900.7190635,16
1774419900.7347136,15
1774419900.760922,14
1774419900.7713552,13
1774419900.790414,13
1774419900.8086843,12
1774419900.8284867,11
1774419900.8382375,11
1774419900.858069,12
1774419900.869195,16
1774419900.8892672,23
1774419900.9055717,32
1774419900.922053,42
1774419900.9341908,53
1774419900.960932,63
1774419900.9666245,71
1774419900.9875703,76
1774419901.0001552,79
1774419901.0361705,79
1774419901.0366147,78
1774419901.0635726,75
1774419901.068123,72
1774419901.0867684,68
1774419901.102151,64
1774419901.1224558,60
1774419901.1365354,56
1774419901.160513,53
1774419901.1765926,52
1774419901.1902742,50
1774419901.2073863,49
1774419901.2183852,47
1774419901.2353601,45
1774419901.265184,42
1774419901.2676609,39
1774419901.2863858,36
1774419901.3023608,33
1774419901.3233485,30
1774419901.3344018,27
1774419901.3510416,25
1774419901.3664744,23
1774419901.3927398,22
1774419901.4072616,20
1774419901.4223444,19
1774419901.4353106,19
1774419901.4564123,18
1774419901.4726796,17
1774419901.493759,16
1774419901.5071237,16
1774419901.525499,15
1774419901.5356772,15
1774419901.557384,18
1774419901.5700703,23
1774419901.58999,31
1774419901.605575,40
1774419901.6264515,51
1774419901.6375413,61
1774419901.6496446,70
1774419901.66888,75
1774419901.6846006,78
1774419901.7006211,79
1774419901.7166536,78
1774419901.7348132,76
1774419901.7563524,73
1774419901.7661505,69
1774419901.7828233,64
1774419901.8038104,60
1774419901.827667,57
1774419901.8400779,54
1774419901.8610153,52
1774419901.87793,51
1774419901.8918157,49
1774419901.9067612,48
1774419901.9232578,46
1774419901.9406586,43
1774419901.9590557,40
1774419901.9673374,38
1774419901.9884245,35
1774419902.0043507,32
1774419902.0271866,29
1774419902.0363672,26
1774419902.0601892,24
1774419902.0687788,23
1774419902.084214,21
1774419902.1006453,20
1774419902.1278658,19
1774419902.1394494,18
1774419902.1593726,18
1774419902.1661801,17
1774419902.203083,16
1774419902.2112174,16
1774419902.225543,18
1774419902.2432032,22
1774419902.2592635,29
1774419902.2743576,38
1774419902.2912707,49
1774419902.3074071,60
1774419902.319385,70
1774419902.3406696,78
1774419902.3542461,83
1774419902.369285,85
1774419902.3942797,85
1774419902.401341,84
1774419902.4174588,82
1774419902.4334419,78
1774419902.4625726,74
1774419902.4707181,70
1774419902.4910488,66
1774419902.5074582,62
1774419902.5281246,59
1774419902.537659,56
1774419902.5519602,54
1774419902.5772305,52
1774419902.593286,50
1774419902.6091728,47
1774419902.6254787,44
1774419902.641439,41
1774419902.6495898,38
1774419902.6720448,35
1774419902.6839488,32
1774419902.7043364,29
1774419902.720352,27
1774419902.736533,25
1774419902.7524598,23
1774419902.7704384,22
1774419902.7843812,20
1774419902.8027961,19
1774419902.824833,18
1774419902.8371882,17
1774419902.8609169,16
1774419902.8702338,16
1774419902.89628,17
1774419902.90319,19
1774419902.9277647,25
1774419902.9437675,34
1774419902.9506822,43
1774419902.9778645,55
1774419902.991614,66
1774419903.0007517,75
1774419903.020708,82
1774419903.0397272,85
1774419903.055794,87
1774419903.070026,86
1774419903.083225,85
1774419903.1021044,82
1774419903.119737,78
1774419903.135835,74
1774419903.1510036,69
1774419903.1745892,65
1774419903.1987438,60
1774419903.2033176,56
1774419903.2277179,53
1774419903.237801,51
1774419903.2591305,49
1774419903.2755945,46
1774419903.2967446,43
1774419903.3062816,40
1774419903.3257515,38
1774419903.349167,34
1774419903.353041,31
1774419903.3738658,28
1774419903.3899066,25
1774419903.410757,23
1774419903.416645,21
1774419903.437702,19
1774419903.453994,18
1774419903.4732308,17
1774419903.4858153,16
1774419903.5014455,15
1774419903.5199144,14
1774419903.5405881,13
1774419903.551722,12
1774419903.568626,13
1774419903.5909426,16
1774419903.6007483,21
1774419903.61637,30
1774419903.6371236,40
1774419903.6578822,51
1774419903.6696942,62
1774419903.689627,71
1774419903.7093399,77
1774419903.7252414,81
1774419903.7412312,82
1774419903.7498283,81
1774419903.7733278,80
1774419903.7828724,77
1774419903.805403,73
1774419903.8173308,69
1774419903.8419938,64
1774419903.8602264,60
1774419903.880644,56
1774419903.8902366,53
1774419903.911284,50
1774419903.9201858,47
1774419903.9386272,45
1774419903.9563842,43
1774419903.9667277,40
1774419903.9943502,38
1774419904.0017138,35
1774419904.0271568,31
1774419904.0340219,28
1774419904.0507424,25
1774419904.0702503,23
1774419904.0835538,21
1774419904.099932,19
1774419904.1191077,18
1774419904.1420927,17
1774419904.1496663,16
1774419904.1704295,15
1774419904.1841693,14
1774419904.2009056,13
1774419904.2192104,12
1774419904.2445164,12
1774419904.2503026,11
1774419904.2663205,11
1774419904.2908337,12
1774419904.2995632,16
1774419904.329069,23
1774419904.3353488,32
1774419904.3605225,42
1774419904.3699236,54
1774419904.3916848,64
1774419904.4065175,72
1774419904.4258654,77
1774419904.4366345,79
1774419904.457916,79
1774419904.4668975,78
1774419904.485649,76
1774419904.511271,72
1774419904.521078,68
1774419904.537009,64
1774419904.551659,60
1774419904.5726619,56
1774419904.591544,54
1774419904.6004472,51
1774419904.6166203,50
1774419904.635206,48
1774419904.6610987,46
1774419904.6707551,43
1774419904.6850846,40
1774419904.7062922,38
1774419904.7278302,35
1774419904.738795,32
1774419904.7525096,29
1774419904.7763999,26
1774419904.7841585,24
1774419904.8005419,22
1774419904.8174672,21
1774419904.836933,19
1774419904.8541982,19
1774419904.8708208,18
1774419904.8884861,17
1774419904.9021978,16
1774419904.9196885,15
1774419904.9365313,14
1774419904.9504719,13
1774419904.970411,13
1774419904.9826524,14
1774419905.0007885,17
1774419905.016607,23
1774419905.0407639,31
1774419905.0525618,41
1774419905.0664086,52
1774419905.082912,63
1774419905.1007695,71
1774419905.1283927,76
1774419905.1444826,79
1774419905.159806,80
1774419905.1746538,79
1774419905.1923642,77
1774419905.2035336,74
1774419905.2166927,70
1774419905.2443628,66
1774419905.254181,62
1774419905.2703028,58
1774419905.2881608,55
1774419905.3039649,53
1774419905.3199708,51
1774419905.335941,49
1774419905.3520756,47
1774419905.3720934,45
1774419905.3890011,42
1774419905.4059703,40
1774419905.4197664,36
1774419905.433195,33
1774419905.4574778,30
1774419905.4700124,27
1774419905.486192,25
1774419905.5099432,23
1774419905.5276499,21
1774419905.5352147,20
1774419905.560018,19
1774419905.575845,18
1774419905.5892076,17
1774419905.607776,16
1774419905.622853,15
1774419905.6396625,15
1774419905.6546648,14
1774419905.6706135,14
1774419905.6857085,16
1774419905.7026446,22
1774419905.7188225,29
1774419905.742973,40
1774419905.750794,50
1774419905.7701511,61
1774419905.782799,71
1774419905.8118188,78
1774419905.8278923,82
1774419905.8342748,84
1774419905.860932,84
1774419905.8775957,82
1774419905.8936906,80
1774419905.9097073,77
1774419905.9187074,73
1774419905.9410694,68
1774419905.9559884,64
1774419905.9669647,60
1774419905.9839919,57
1774419906.0040293,54
1774419906.0205915,52
1774419906.039169,50
1774419906.052086,48
1774419906.0672016,45
1774419906.082983,42
1774419906.1004288,39
1774419906.1170204,36
1774419906.1442883,33
1774419906.14991,30
1774419906.1735394,27
1774419906.1839695,25
1774419906.204022,23
1774419906.2158985,21
1774419906.2435925,20
1774419906.2599087,19
1774419906.270482,18
1774419906.290839,17
1774419906.3080306,16
1774419906.3208704,15
1774419906.3360865,15
1774419906.3504581,14
1774419906.3692846,14
1774419906.3881147,16
1774419906.4038646,20
1774419906.420464,28
1774419906.4359968,38
1774419906.4520442,49
1774419906.4728382,60
1774419906.4826276,71
1774419906.4999762,79
1774419906.5160968,84
1774419906.5357652,86
1774419906.5504987,87
1774419906.5672326,86
1774419906.5870597,84
1774419906.5998874,81
1774419906.6228137,77
1774419906.6333196,73
1774419906.6545677,69
1774419906.6747441,64
1774419906.691676,60
1774419906.7075999,57
1774419906.727034,54
1774419906.7398412,51
1774419906.754368,49
1774419906.767547,46
1774419906.7877257,43
1774419906.8018715,40
1774419906.8229022,37
1774419906.8357592,34
1774419906.851617,30
1774419906.8704197,27
1774419906.888643,24
1774419906.9168687,22
1774419906.9207413,20
1774419906.944449,19
1774419906.9502246,17
1774419906.9691067,16
1774419906.9846492,15
1774419907.0098968,14
1774419907.0259094,13
1774419907.041911,12
1774419907.0518117,12
1774419907.0701358,11
1774419907.0829155,11
1774419907.1012235,14
1774419907.1278567,20
1774419907.1369076,29
1774419907.1532085,39
1774419907.1765203,50
1774419907.1886013,62
1774419907.2036133,71
1774419907.223957,78
1774419907.2329266,82
1774419907.2560759,84
1774419907.2698357,84
1774419907.2828484,82
1774419907.3042505,79
1774419907.3202307,76
1774419907.3388834,72
1774419907.350124,67
1774419907.3763657,63
1774419907.38305,58
1774419907.4083564,55
1774419907.4169645,52
1774419907.4346318,50
1774419907.4563835,47
1774419907.4725628,45
1774419907.4879413,42
1774419907.5040452,40
1774419907.5209315,37
1774419907.535274,34
1774419907.550976,30
1774419907.5701869,27
1774419907.583028,24
1774419907.6027865,22
1774419907.6233637,20
1774419907.6326046,19
1774419907.655143,18
1774419907.677706,17
1774419907.6885405,16
1774419907.7103906,16
1774419907.720376,15
1774419907.7471511,14
1774419907.7502413,13
1774419907.768496,13
1774419907.7835624,12
1774419907.8024824,12
1774419907.824584,14
1774419907.8384318,18
1774419907.8545735,26
1774419907.868888,36
1774419907.8943484,46
1774419907.9086058,58
1774419907.920467,68
1774419907.9405627,75
1774419907.9496586,80
1774419907.9671881,82
1774419907.9896066,81
1774419908.0135632,80
1774419908.0243523,77
1774419908.0453246,73
1774419908.0548968,68
1774419908.0678036,64
1774419908.0843022,60
1774419908.1000566,56
1774419908.1206532,54
1774419908.1415389,51
1774419908.1507468,50
1774419908.1726785,48
1774419908.1832755,46
1774419908.2046943,43
1774419908.221147,40
1774419908.236107,38
1774419908.260944,35
1774419908.274794,31
1774419908.2830014,28
1774419908.3052008,25
1774419908.3271215,23
1774419908.3404386,21
1774419908.3521872,20
1774419908.3727295,19
1774419908.3889186,18
1774419908.4109461,17
1774419908.4267566,16
1774419908.4429073,15
1774419908.4518871,15
1774419908.4743195,14
1774419908.4858057,13
1774419908.5069416,13
1774419908.5194573,14
1774419908.5390272,18
1774419908.555138,25
1774419908.5678265,35
1774419908.5860915,45
1774419908.6111042,56
1774419908.6180098,66
1774419908.6444678,74
1774419908.6500964,79
1774419908.6667745,81
1774419908.6831083,81
1774419908.6997192,79
1774419908.7228227,76
1774419908.7456906,72
1774419908.757248,68
1774419908.7777123,64
1774419908.7940197,60
1774419908.8100324,56
1774419908.8199818,53
1774419908.8410814,51
1774419908.8500836,49
1774419908.8700676,48
1774419908.8865087,46
1774419908.906365,43
1774419908.918719,40
1774419908.935455,38
1774419908.9497206,35
1774419908.970262,32
1774419908.9824936,28
1774419909.0011237,26
1774419909.0230963,23
1774419909.0331397,22
1774419909.049348,20
1774419909.0658681,19
1774419909.0876265,18
1774419909.0995831,17
1774419909.1174974,17
1774419909.136001,16
1774419909.159019,15
1774419909.1708379,15
1774419909.189761,14
1774419909.207048,15
1774419909.2228894,18
1774419909.2533517,25
1774419909.25368,33
1774419909.2668736,43
1774419909.2855556,55
1774419909.3006198,66
1774419909.3177187,76
1774419909.3355854,82
1774419909.350696,85
1774419909.367757,86
1774419909.3867993,85
1774419909.4088583,83
1774419909.4295716,80
1774419909.439931,76
1774419909.4610739,71
1774419909.4703712,67
1774419909.48843,62
1774419909.5103738,58
1774419909.5265574,55
1774419909.5327115,53
1774419909.5508406,50
1774419909.570435,48
1774419909.589349,46
1774419909.6058822,43
1774419909.6209538,40
1774419909.6370182,38
1774419909.6509836,34
1774419909.6684911,31
1774419909.6844182,28
1774419909.7048638,25
1774419909.7157667,23
1774419909.742966,21
1774419909.7500663,20
1774419909.7774346,18
1774419909.7921844,17
1774419909.7992597,16
1774419909.82255,16
1774419909.8413577,15
1774419909.8518655,14
1774419909.87315,13
1774419909.8899813,14
1774419909.904518,18
1774419909.9229882,24
1774419909.9389558,33
1774419909.955536,43
1774419909.9689605,55
1774419909.98716,66
1774419910.002997,75
1774419910.0191605,81
1774419910.0353274,85
1774419910.0496335,85
1774419910.0671906,85
1774419910.0831604,83
1774419910.0993176,79
1774419910.121502,75
1774419910.1372313,71
1774419910.1498957,66
1774419910.1657636,61
1774419910.1860275,57
1774419910.1990163,53
1774419910.2245853,50
1774419910.2365797,48
1774419910.249586,46
1774419910.2682047,43
1774419910.2832122,40
1774419910.3070185,38
1774419910.3204248,35
1774419910.340939,31
1774419910.354929,28
1774419910.3701568,25
1774419910.3853998,22
1774419910.404021,20
1774419910.4180722,18
1774419910.435992,16
1774419910.4492233,15
1774419910.4797246,14
1774419910.4836202,13
1774419910.5062165,12
1774419910.5240138,11
1774419910.5370655,10
1774419910.5530462,10
1774419910.565844,9
1774419910.5921128,10
1774419910.602296,13
1774419910.6209269,20
1774419910.6410286,29
1774419910.656922,39
1774419910.6656725,50
1774419910.6887617,61
1774419910.7044702,70
1774419910.718271,76
1774419910.743537,79
1774419910.7524471,79
1774419910.7683914,78
1774419910.7931495,76
1774419910.7994747,73
1774419910.8215888,69
1774419910.847397,64
1774419910.8604496,60
1774419910.8789737,56
1774419910.8886247,52
1774419910.9113758,49
1774419910.9204736,47
1774419910.9337993,45
1774419910.9683008,43
1774419910.9685068,41
1774419910.9914958,39
1774419911.0006015,36
1774419911.023487,32
1774419911.0324006,29
1774419911.0545137,25
1774419911.0702796,23
1774419911.0837848,20
1774419911.1001577,18
1774419911.1185586,17
1774419911.1334674,15
1774419911.1496468,14
1774419911.177065,13
1774419911.1865907,12
1774419911.2127054,11
1774419911.2210317,10
1774419911.2453907,9
1774419911.253738,8
1774419911.2764857,8
1774419911.2872508,10
1774419911.3018715,14
1774419911.3169253,20
1774419911.3339837,29
1774419911.3513887,39
1774419911.3658092,49
1774419911.3863068,58
1774419911.403451,65
1774419911.42049,69
1774419911.4340284,70
1774419911.4500742,70
1774419911.4671648,68
1774419911.4879017,66
1774419911.5103593,62
1774419911.5272079,58
1774419911.5383067,54
1774419911.559021,51
1774419911.570202,48
1774419911.5930865,45
1774419911.609229,44
1774419911.6216133,42
1774419911.6331444,41
1774419911.656946,40
1774419911.6690328,37
1774419911.689343,34
1774419911.704596,31
1774419911.7210777,28
1774419911.7364197,25
1774419911.7557433,23
1774419911.766528,20
1774419911.785053,18
1774419911.8111565,17
1774419911.828794,15
1774419911.840985,14
1774419911.8515394,14
1774419911.87274,13
1774419911.8836262,12
1774419911.9033468,11
1774419911.916511,10
1774419911.935527,10
1774419911.9548016,10
1774419911.9692492,12
1774419911.9895062,17
1774419912.0087628,24
1774419912.0207975,34
1774419912.040835,43
1774419912.0562332,53
1774419912.0700493,62
1774419912.0827026,67
1774419912.0998757,71
1774419912.1162448,72
1774419912.1350677,72
1774419912.1557262,71
1774419912.1686335,69
1774419912.1848788,66
1774419912.200577,62
1774419912.21637,59
1774419912.232652,55
1774419912.2611754,52
1774419912.2679553,49
1774419912.29428,47
1774419912.3110464,45
1774419912.3168876,43
1774419912.3444054,41
1774419912.3605332,40
1774419912.37647,37
1774419912.3925066,34
1774419912.4110935,31
1774419912.4244616,28
1774419912.4384332,25
1774419912.4502072,23
1774419912.4700823,21
1774419912.4917905,19
1774419912.5004158,18
1774419912.52295,17
1774419912.5355392,16
1774419912.5525012,15
1774419912.567698,14
1774419912.5868695,13
1774419912.5995967,12
1774419912.6204216,11
1774419912.632249,11
1774419912.658864,13
1774419912.6778378,17
1774419912.6943202,24
1774419912.7104487,33
1774419912.716944,42
1774419912.7404444,51
1774419912.7581487,60
1774419912.7744315,65
1774419912.7907512,69
1774419912.8056262,70
1774419912.8182497,70
1774419912.8379433,69
1774419912.853999,67
1774419912.8696275,65
1774419912.894435,61
1774419912.9081147,58
1774419912.918169,54
1774419912.9343088,51
1774419912.9498274,48
1774419912.9660819,46
1774419912.9826348,44
1774419912.9988601,42
1774419913.0260236,40
1774419913.041585,39
1774419913.0616019,37
1774419913.066991,34
1774419913.0834024,31
1774419913.0994465,28
1774419913.1206243,25
1774419913.1416254,23
1774419913.1571295,21
1774419913.1731977,19
1774419913.188068,18
1774419913.2040212,17
1774419913.2193115,16
1774419913.2353642,15
1774419913.2513394,14
1774419913.266927,13
1774419913.286259,12
1774419913.3009207,11
1774419913.3160229,10
1774419913.33387,10
1774419913.352076,10
1774419913.3699565,13
1774419913.3907135,18
1774419913.3992784,26
1774419913.4175143,35
1774419913.4387045,44
1774419913.4593883,53
1774419913.4754221,60
1774419913.49051,65
1774419913.5012412,67
1774419913.523152,68
1774419913.5431683,67
1774419913.5551727,66
1774419913.5704527,64
1774419913.5839334,61
1774419913.6026094,58
1774419913.6251628,55
1774419913.6345067,52
1774419913.6505353,50
1774419913.6666155,48
1774419913.6828027,46
1774419913.7001212,45
1774419913.722854,44
1774419913.7384727,42
1774419913.7583587,40
1774419913.7656772,37
1774419913.7905982,35
1774419913.8011713,32
1774419913.8246427,29
1774419913.833039,27
1774419913.8519063,25
1774419913.8726907,23
1774419913.8886993,21
1774419913.9046543,20
1774419913.9178116,19
1774419913.938265,18
1774419913.9528084,18
1774419913.9672358,17
1774419913.9923415,16
1774419914.0008202,15
1774419914.0169415,14
1774419914.0360842,13
1774419914.060566,12
1774419914.065797,14
1774419914.0843906,17
1774419914.100467,23
1774419914.1223016,31
1774419914.1326418,40
1774419914.1602585,48
1774419914.1707315,56
1774419914.1928878,61
1774419914.2025821,64
1774419914.2247233,65
1774419914.2407424,65
1774419914.2566912,64
1774419914.2674866,62
1774419914.2859578,60
1774419914.3013127,57
1774419914.3205998,54
1774419914.3368053,51
1774419914.3521085,49
1774419914.3713074,47
1774419914.392334,45
1774419914.4046037,44
1774419914.420099,43
1774419914.4331214,41
1774419914.4645245,40
1774419914.4673107,37
1774419914.488258,34
1774419914.5043974,32
1774419914.5283518,29
1774419914.5336778,26
1774419914.5609622,24
1774419914.5700102,22
1774419914.5924919,21
1774419914.6050797,20
1774419914.6277235,19
1774419914.6403577,18
1774419914.6517186,17
1774419914.6777446,16
1774419914.688865,15
1774419914.7017999,14
1774419914.7220151,13
1774419914.742237,12
1774419914.7508535,12
1774419914.7670648,13
1774419914.7831612,17
1774419914.7990031,24
1774419914.8228364,32
1774419914.837679,40
1774419914.8628604,49
1774419914.8707547,57
1774419914.8838422,62
1774419914.8999438,65
1774419914.9260597,67
1774419914.9362319,67
1774419914.9568172,67
1774419914.9663808,66
1774419914.9856493,64
1774419914.9992151,61
1774419915.0158331,58
1774419915.0365696,55
1774419915.0524354,52
1774419915.0705628,50
1774419915.083208,48
1774419915.101701,46
1774419915.1182458,45
1774419915.1369693,43
1774419915.150439,41
1774419915.1702032,39
1774419915.1841123,36
1774419915.2057831,33
1774419915.2201421,30
1774419915.2431233,28
1774419915.2620037,25
1774419915.2707503,23
1774419915.2939684,22
1774419915.3076277,20
1774419915.318763,19
1774419915.3391976,18
1774419915.3573775,17
1774419915.3706522,16
1774419915.382578,15
1774419915.4026089,14
1774419915.4227676,13
1774419915.4347484,12
1774419915.460827,11
1774419915.4657345,13
1774419915.4869606,16
1774419915.5011811,22
1774419915.524735,29
1774419915.533289,38
1774419915.5517561,46
1774419915.5742507,54
1774419915.5831695,60
1774419915.5987625,64
1774419915.6242962,66
1774419915.6376839,67
1774419915.6557655,67
1774419915.668575,66
1774419915.6909294,64
1774419915.7017996,61
1774419915.725413,58
1774419915.7352214,55
1774419915.7556958,51
1774419915.7707949,48
1774419915.7838838,46
1774419915.7987068,44
1774419915.8168037,42
1774419915.8359416,40
1774419915.851733,39
1774419915.8678174,36
1774419915.883359,33
1774419915.8993757,30
1774419915.9213686,27
1774419915.9364388,24
1774419915.9555924,22
1774419915.9666998,20
1774419915.9844327,18
1774419916.0057015,16
1774419916.021693,14
1774419916.0402184,13
1774419916.0579548,12
1774419916.067264,11
1774419916.0827541,11
1774419916.099262,10
1774419916.1221843,8
1774419916.135983,7
1774419916.1493266,6
1774419916.1701927,6
1774419916.1861703,7
1774419916.198853,10
1774419916.2277486,16
1774419916.2341497,24
1774419916.265066,33
1774419916.2661002,41
1774419916.2943227,50
1774419916.3101597,56
1774419916.3154376,60
1774419916.340953,62
1774419916.3621404,62
1774419916.3779752,61
1774419916.3916705,60
1774419916.4012897,58
1774419916.4262202,56
1774419916.4373786,53
1774419916.4593992,50
1774419916.469628,47
1774419916.490878,45
1774419916.505614,43
1774419916.5222368,42
1774419916.5339835,40
1774419916.5543406,40
1774419916.5694585,38
1774419916.5909407,35
1774419916.6090775,33
1774419916.616024,30
1774419916.6324196,27
1774419916.648801,25
1774419916.6665025,23
1774419916.685486,21
1774419916.7030716,19
1774419916.7247384,18
1774419916.7349074,17
1774419916.7544522,16
1774419916.776373,16
1774419916.790203,15
1774419916.8002844,14
1774419916.8193197,13
1774419916.8377838,12
1774419916.8511498,11
1774419916.8709867,11
1774419916.8826861,10
1774419916.9019897,11
1774419916.918019,13
1774419916.9343364,19
1774419916.9500887,26
1774419916.9661086,35
1774419916.982296,43
1774419917.0109558,51
1774419917.0279949,57
1774419917.0444708,61
1774419917.0491376,63
1774419917.0663204,63
1774419917.0839906,62
1774419917.0988321,60
1774419917.118434,58
1774419917.1384296,55
1774419917.1563814,52
1774419917.1776593,49
1774419917.1901677,47
1774419917.2109118,45
1774419917.2195113,44
1774419917.235341,43
1774419917.2499728,42
1774419917.266502,41
1774419917.2900336,40
1774419917.3002527,38
1774419917.3156517,35
1774419917.3343558,32
1774419917.3609843,30
1774419917.3707643,27
1774419917.3823032,25
1774419917.4094431,23
1774419917.417005,21
1774419917.4434133,20
1774419917.4495091,19
1774419917.4712064,18
1774419917.4914982,18
1774419917.506997,17
1774419917.5257685,16
1774419917.5389848,15
1774419917.5613043,14
1774419917.5658686,14
1774419917.5858855,14
1774419917.608444,15
1774419917.617953,20
1774419917.6397517,26
1774419917.6609156,34
1774419917.6723125,43
1774419917.6836746,52
1774419917.7037668,60
1774419917.7299125,65
1774419917.7445202,68
1774419917.7501197,69
1774419917.7776415,69
1774419917.781971,68
1774419917.800115,66
1774419917.8153608,63
1774419917.840505,61
1774419917.8537216,58
1774419917.8695457,55
1774419917.8874357,52
1774419917.9006445,51
1774419917.9177594,49
1774419917.9359908,48
1774419917.958816,47
1774419917.9666548,45
1774419917.9826531,43
1774419918.0032086,40
1774419918.0157635,39
1774419918.0348656,36
1774419918.0510573,33
1774419918.0677612,31
1774419918.0849135,28
1774419918.1021264,27
1774419918.1203914,25
1774419918.1406708,24
1774419918.1495168,23
1774419918.172424,22
1774419918.1874218,21
1774419918.201066,20
1774419918.2164695,19
1774419918.2325902,18
1774419918.249341,17
1774419918.2809908,17
1774419918.281936,18
1774419918.3095484,22
1774419918.3165636,29
1774419918.3345256,37
1774419918.3580806,46
1774419918.3772771,56
1774419918.3955402,64
1774419918.4056017,71
1774419918.4278028,75
1774419918.4351766,77
1774419918.459699,78
1774419918.4699354,77
1774419918.4920359,76
1774419918.502837,74
1774419918.5172546,71
1774419918.5396147,67
1774419918.5499415,64
1774419918.5708065,61
1774419918.581874,58
1774419918.6003666,56
1774419918.6158526,54
1774419918.6347232,52
1774419918.650628,50
1774419918.666863,47
1774419918.6838844,44
1774419918.7028174,41
1774419918.7205603,39
1774419918.740305,36
1774419918.7538037,33
1774419918.772063,31
1774419918.7866337,28
1774419918.807434,26
1774419918.826499,25
1774419918.841665,23
1774419918.8576016,22
1774419918.8737466,21
1774419918.888618,19
1774419918.9048572,18
1774419918.917579,17
1774419918.9369392,16
1774419918.9524508,14
1774419918.9690406,14
1774419918.9839547,16
1774419919.0011587,19
1774419919.0155458,26
1774419919.032969,34
1774419919.0490088,43
1774419919.066762,53
1774419919.08254,62
1774419919.0996213,68
1774419919.1288865,72
1774419919.1418326,73
1774419919.1551235,73
1774419919.167792,72
1774419919.1869936,70
1774419919.201278,68
1774419919.2229261,64
1774419919.2398643,61
1774419919.256211,57
1774419919.2660637,54
1774419919.2839332,52
1774419919.303716,49
1774419919.3175592,48
1774419919.340608,46
1774419919.3500156,44
1774419919.3691702,41
1774419919.3863552,39
1774419919.3986948,36
1774419919.4186387,33
1774419919.43323,30
1774419919.4487517,28
1774419919.4666297,25
1774419919.488206,23
1774419919.5100293,21
1774419919.5258036,20
1774419919.5439045,19
1774419919.5577807,18
1774419919.571099,17
1774419919.5898197,16
1774419919.605831,15
1774419919.6217103,15
1774419919.6333084,14
1774419919.6499045,13
1774419919.6697865,12
1774419919.684897,12
1774419919.701106,14
1774419919.717137,18
1774419919.7348928,25
1774419919.7494164,34
1774419919.7750595,43
1774419919.7818193,52
1774419919.800912,60
1774419919.8152022,66
1774419919.835495,68
1774419919.8527565,69
1774419919.8713431,68
1774419919.8912673,66
1774419919.9017324,64
1774419919.9240098,60
1774419919.9398606,57
1774419919.9560163,54
1774419919.9678144,51
1774419919.9849849,49
1774419920.002975,47
1774419920.0223854,46
1774419920.0449746,45
1774419920.0544066,44
1774419920.0677838,42
1774419920.083214,40
1774419920.0989816,37
1774419920.1162424,34
1774419920.1442668,32
1774419920.1502917,29
1774419920.1778395,26
1774419920.1830533,24
1774419920.2110298,23
1774419920.215485,21
1774419920.2324765,20
1774419920.2589207,19
1774419920.2749357,18
1774419920.2898455,18
1774419920.3058014,17
1774419920.3174603,16
1774419920.336125,15
1774419920.3531568,14
1774419920.3688507,14
1774419920.3840523,15
1774419920.411826,18
1774419920.4216075,23
1774419920.4321022,31
1774419920.4522843,40
1774419920.4778178,49
1774419920.488883,58
1774419920.5080507,65
1774419920.5262668,69
1774419920.5362859,71
1774419920.5549486,71
1774419920.5744243,70
1774419920.5817668,68
1774419920.6063614,65
1774419920.6204453,62
1774419920.6444616,59
1774419920.6512318,56
1774419920.667645,53
1774419920.683506,51
1774419920.7068477,49
1774419920.7262378,48
1774419920.735648,47
1774419920.755021,45
1774419920.7667127,43
1774419920.7842858,40
1774419920.7986157,38
1774419920.8163192,35
1774419920.8346663,32
1774419920.8571956,30
1774419920.8691535,27
1774419920.8891444,25
1774419920.909084,24
1774419920.9175732,22
1774419920.9435105,21
1774419920.9516065,20
1774419920.9664123,19
1774419920.9847739,19
1774419921.0056062,18
1774419921.021431,17
1774419921.0408008,16
1774419921.0634792,15
1774419921.0698426,16
1774419921.082275,18
1774419921.1003559,23
1774419921.115618,31
1774419921.1393692,40
1774419921.1600301,50
1774419921.1733878,60
1774419921.1927454,68
1774419921.2114022,74
1774419921.224646,77
1774419921.2325592,78
1774419921.254018,78
1774419921.2718463,76
1774419921.285572,74
1774419921.3057525,71
1774419921.321822,68
1774419921.3377492,64
1774419921.3495657,61
1774419921.3781066,58
1774419921.3852677,55
1774419921.4022436,53
1774419921.4181402,51
1774419921.439485,49
1774419921.4542887,47
1774419921.4714115,44
1774419921.4866252,41
1774419921.504633,39
1774419921.5218751,36
1774419921.5368905,33
1774419921.5535662,30
1774419921.5757554,28
1774419921.5861015,26
1774419921.6038673,25
1774419921.6171384,23
1774419921.6351173,22
1774419921.6535761,21
1774419921.6806545,20
1774419921.6849675,19
1774419921.7037218,18
1774419921.719763,17
1774419921.7357674,17
1774419921.7557738,17
1774419921.775003,19
1774419921.7838147,24
1774419921.7999866,31
1774419921.815866,40
1774419921.8403313,49
1774419921.8514864,60
1774419921.877561,68
1774419921.8901694,74
1774419921.911309,78
1774419921.9272265,79
1774419921.9432292,79
1774419921.9569933,78
1774419921.9712105,76
1774419921.9898374,73
1774419922.000134,69
1774419922.017857,66
1774419922.0428185,61
1774419922.0546129,58
1774419922.0666695,54
1774419922.0825317,52
1774419922.1001189,49
1774419922.1169777,47
1774419922.1346443,45
1774419922.149766,42
1774419922.1666057,40
1774419922.1825788,37
1774419922.2092595,33
1774419922.2150874,30
1774419922.2455623,27
1774419922.2610412,24
1774419922.2712462,22
1774419922.293438,20
1774419922.3083317,18
1774419922.3245137,17
1774419922.3351996,16
1774419922.3571656,15
1774419922.37234,14
1774419922.3828728,12
1774419922.4044504,11
1774419922.420377,10
1774419922.4364247,10
1774419922.4532013,11
1774419922.474721,14
1774419922.484605,20
1774419922.5162888,28
1774419922.516971,38
1774419922.5399444,47
1774419922.5498745,57
1774419922.5777333,64
1774419922.5863626,68
1774419922.599102,70
1774419922.6150784,71
1774419922.633609,70
1774419922.6549537,69
1774419922.6714911,66
1774419922.6879146,63
1774419922.6999054,60
1774419922.716946,56
1774419922.7384348,53
1774419922.7535224,50
1774419922.7687209,47
1774419922.7863839,45
1774419922.802324,43
1774419922.8183646,41
1774419922.8344386,40
1774419922.849813,37
1774419922.8691294,34
1774419922.8818102,31
1774419922.9107375,28
1774419922.9224205,25
1774419922.943696,23
1774419922.9533808,21
1774419922.970818,19
1774419922.981643,18
1774419923.0011008,17
1774419923.0179777,16
1774419923.0402634,15
1774419923.057792,14
1774419923.0650916,13
1774419923.0832536,12
1774419923.1022546,11
1774419923.1207383,10
1774419923.1363976,10
1774419923.1549037,12
1774419923.1740475,16
1774419923.1846647,23
1774419923.2003434,31
1774419923.217414,40
1774419923.233369,49
1774419923.2566023,57
1774419923.2656271,63
1774419923.281864,66
1774419923.3016267,67
1774419923.3192863,66
1774419923.335008,65
1774419923.3503177,62
1774419923.3726044,59
1774419923.3827927,56
1774419923.4041188,53
1774419923.4252787,50
1774419923.4405317,47
1774419923.4500823,46
1774419923.4734404,44
1774419923.487131,43
1774419923.5078425,41
1774419923.5200946,40
1774419923.5360458,38
1774419923.5517185,35
1774419923.5650942,33
1774419923.5880308,30
1774419923.602868,27
1774419923.6158075,25
1774419923.6347256,22
1774419923.653578,21
1774419923.6699274,19
1774419923.6865692,18
1774419923.7116406,17
1774419923.7188456,16
1774419923.7413864,16
1774419923.7507627,15
1774419923.767343,14
1774419923.7819927,13
1774419923.8076203,13
1774419923.81855,13
1774419923.83373,15
1774419923.8556755,20
1774419923.8705845,27
1774419923.8893023,36
1774419923.9036138,45
1774419923.9196033,54
1774419923.9356806,62
1774419923.9516163,67
1774419923.9674833,69
1774419923.9824717,70
1774419924.0005195,69
1774419924.0180938,68
1774419924.0379539,65
1774419924.0567355,63
1774419924.0660295,59
1774419924.0849717,56
1774419924.099275,53
1774419924.119784,51
1774419924.1424544,49
1774419924.1532617,48
1774419924.170368,46
1774419924.1912823,45
1774419924.2018857,43
1774419924.2281313,40
1774419924.2386467,38
1774419924.254576,35
1774419924.2738037,33
1774419924.287286,30
1774419924.3215754,27
1774419924.3278353,25
1774419924.3338234,23
1774419924.3494973,22
1774419924.3701131,21
1774419924.3817961,20
1774419924.3984683,19
1774419924.4207015,18
1774419924.4440928,17
1774419924.4547493,16
1774419924.4763303,15
1774419924.4875932,15
1774419924.501099,16
1774419924.5182817,19
1774419924.5402052,24
1774419924.557369,32
1774419924.5712748,41
1774419924.5922363,51
1774419924.6012485,60
1774419924.6183715,68
1774419924.6343355,73
1774419924.6505058,75
1774419924.6658652,76
1774419924.6900613,76
1774419924.704624,74
1774419924.7226527,72
1774419924.7452238,69
1774419924.7520797,66
1774419924.7722797,63
1774419924.7918534,59
1774419924.8075714,56
1774419924.8211718,54
1774419924.841404,52
1774419924.855523,50
1774419924.8734365,48
1774419924.889368,46
1774419924.9054537,43
1774419924.9199114,40
1774419924.9374986,38
1774419924.9533353,35
1774419924.965961,32
1774419924.9854898,30
1774419925.0014918,27
1774419925.0166879,25
1774419925.0378728,24
1774419925.06588,22
1774419925.0660827,21
1774419925.0821457,20
1774419925.099273,19
