timestamp,bvp
1774420947.491848,44
1774420947.5083957,43
1774420947.5250115,41
1774420947.541741,40
1774420947.5583973,39
1774420947.5750375,38
1774420947.5917614,37
1774420947.6083813,35
1774420947.6250267,34
1774420947.6416783,33
1774420947.658385,31
1774420947.675036,30
1774420947.6917303,30
1774420947.7083912,29
1774420947.72501,28
1774420947.7419198,27
1774420947.7586906,27
1774420947.775498,27
1774420947.7922285,26
1774420947.8085542,26
1774420947.8254354,26
1774420947.8421242,26
1774420947.8594415,26
1774420947.875325,26
1774420947.8919814,25
1774420947.9086125,25
1774420947.9261658,25
1774420947.9431171,27
1774420947.9587061,31
1774420947.977266,36
1774420947.9922628,41
1774420948.0087538,47
1774420948.0253103,53
1774420948.041889,58
1774420948.0587196,62
1774420948.0750175,63
1774420948.0921528,64
1774420948.1086192,63
1774420948.125262,63
1774420948.1418912,62
1774420948.1586497,61
1774420948.1755862,59
1774420948.1919222,57
1774420948.2086408,55
1774420948.225337,52
1774420948.2419245,50
1774420948.258702,48
1774420948.2757895,46
1774420948.2938576,45
1774420948.309208,43
1774420948.3258004,42
1774420948.3422542,41
1774420948.3587294,40
1774420948.3754997,39
1774420948.3930874,37
1774420948.4103503,36
1774420948.425671,35
1774420948.4420178,34
1774420948.4586773,33
1774420948.475027,32
1774420948.4924781,31
1774420948.50893,30
1774420948.5256634,29
1774420948.5420167,29
1774420948.5599644,29
1774420948.5789196,28
1774420948.59331,28
1774420948.610126,28
1774420948.6250803,28
1774420948.6439128,28
1774420948.6608098,27
1774420948.676152,27
1774420948.692496,27
1774420948.7089171,27
1774420948.7260785,28
1774420948.7489614,31
1774420948.758917,35
1774420948.775725,40
1774420948.793329,45
1774420948.8121393,51
1774420948.826712,56
1774420948.8422368,60
1774420948.8589797,62
1774420948.8750386,63
1774420948.9040444,63
1774420948.9090958,63
1774420948.9323277,62
1774420948.9425068,61
1774420948.9643652,60
1774420948.9759347,58
1774420948.9933794,56
1774420949.00965,54
1774420949.0263784,51
1774420949.0424838,49
1774420949.058985,48
1774420949.0763707,46
1774420949.0931025,44
1774420949.108408,43
1774420949.1259146,41
1774420949.142334,40
1774420949.1598265,39
1774420949.1756918,37
1774420949.192262,36
1774420949.2087562,34
1774420949.225934,33
1774420949.2421644,32
1774420949.2600696,31
1774420949.2757819,31
1774420949.292527,30
1774420949.3100398,29
1774420949.3262882,29
1774420949.3425384,29
1774420949.359905,28
1774420949.376219,28
1774420949.3933399,28
1774420949.413412,28
1774420949.426199,27
1774420949.442449,27
1774420949.4686532,27
1774420949.475562,27
1774420949.4936378,27
1774420949.50994,28
1774420949.5250823,31
1774420949.5424037,35
1774420949.564804,40
1774420949.5758457,45
1774420949.5924807,51
1774420949.6090977,56
1774420949.629543,60
1774420949.6428454,62
1774420949.6592155,63
1774420949.676309,63
1774420949.6925962,63
1774420949.708938,62
1774420949.725129,60
1774420949.7434182,59
1774420949.7587647,57
1774420949.7783117,55
1774420949.7924092,52
1774420949.8099856,50
1774420949.826375,48
1774420949.8460429,45
1774420949.859311,44
1774420949.8765411,42
1774420949.8924255,41
1774420949.909081,40
1774420949.9262536,39
1774420949.9468215,37
1774420949.9637883,36
1774420949.9786835,35
1774420949.992544,33
1774420950.009053,32
1774420950.0256677,31
1774420950.0429142,30
1774420950.0592206,29
1774420950.0749626,28
1774420950.0924747,28
1774420950.1088994,27
1774420950.1256776,27
1774420950.1421907,27
1774420950.1589532,26
1774420950.1761804,26
1774420950.1982725,26
1774420950.2097502,26
1774420950.228242,25
1774420950.2488792,25
1774420950.2590346,25
1774420950.2758162,24
1774420950.2933893,25
1774420950.3089921,26
1774420950.325783,30
1774420950.3448672,34
1774420950.358602,40
1774420950.3768387,45
1774420950.392439,51
1774420950.4089105,56
1774420950.4355283,59
1774420950.4453323,60
1774420950.458303,61
1774420950.475021,60
1774420950.4934015,60
1774420950.5146043,59
1774420950.5256627,57
1774420950.54235,56
1774420950.5625043,54
1774420950.5757205,51
1774420950.5925276,49
1774420950.6095169,47
1774420950.6262503,45
1774420950.6454167,43
1774420950.6584074,42
1774420950.675897,40
1774420950.6922498,40
1774420950.7098742,39
1774420950.7285633,37
1774420950.7424068,36
1774420950.7593625,35
1774420950.7753665,33
1774420950.7926214,32
1774420950.811942,31
1774420950.8360546,30
1774420950.8424845,29
1774420950.8590865,29
1774420950.875504,28
1774420950.89231,28
1774420950.9115133,27
1774420950.9256473,27
1774420950.9423022,27
1774420950.9598541,27
1774420950.9763954,27
1774420950.9935424,27
1774420951.012466,27
1774420951.0259326,27
1774420951.042389,27
1774420951.0600958,27
1774420951.076616,27
1774420951.0937452,29
1774420951.1095386,32
1774420951.1259089,37
1774420951.1429906,41
1774420951.158378,47
1774420951.1756725,53
1774420951.1924086,58
1774420951.2096262,61
1774420951.2259026,62
1774420951.2433221,62
1774420951.259377,62
1774420951.2800736,61
1774420951.2928836,59
1774420951.310083,58
1774420951.3319762,56
1774420951.3459804,54
1774420951.3626323,52
1774420951.3765101,49
1774420951.3925037,47
1774420951.4104702,46
1774420951.425817,44
1774420951.4424808,43
1774420951.468003,41
1774420951.4807806,40
1774420951.493045,39
1774420951.5155814,38
1774420951.5294251,36
1774420951.5427997,35
1774420951.5595028,34
1774420951.5760334,32
1774420951.5924375,31
1774420951.6083987,30
1774420951.6260679,29
1774420951.6432843,29
1774420951.6593077,28
1774420951.6748414,28
1774420951.6983173,28
1774420951.7134094,27
1774420951.7293983,27
1774420951.7430727,27
1774420951.7582283,27
1774420951.7767618,27
1774420951.7925146,26
1774420951.8082316,26
1774420951.8256683,26
1774420951.8423936,27
1774420951.8612864,30
1774420951.875883,34
1774420951.9019926,39
1774420951.9100385,44
1774420951.9320061,50
1774420951.9424884,55
1774420951.9599166,58
1774420951.9771898,60
1774420951.9967554,61
1774420952.0091915,61
1774420952.0271711,60
1774420952.0448086,59
1774420952.059099,58
1774420952.079548,56
1774420952.0916493,54
1774420952.1098802,52
1774420952.1250386,50
1774420952.1425042,48
1774420952.1593518,45
1774420952.1764688,44
1774420952.1925383,42
1774420952.209056,40
1774420952.22533,40
1774420952.2424855,39
1774420952.2602172,37
1774420952.2822332,36
1774420952.2932155,35
1774420952.3138688,33
1774420952.327029,32
1774420952.3465385,31
1774420952.3586001,30
1774420952.3798625,29
1774420952.3924599,28
1774420952.4109495,28
1774420952.4258416,27
1774420952.442834,27
1774420952.4591353,27
1774420952.4788303,27
1774420952.491421,27
1774420952.5091815,26
1774420952.5262854,26
1774420952.5423894,26
1774420952.5591953,25
1774420952.5764306,25
1774420952.593228,26
1774420952.608797,27
1774420952.6336997,31
1774420952.6423059,36
1774420952.6614778,40
1774420952.6817896,47
1774420952.6926935,52
1774420952.714057,57
1774420952.7257905,60
1774420952.7428916,61
1774420952.759875,61
1774420952.7778528,61
1774420952.7932625,60
1774420952.8096707,59
1774420952.8259585,58
1774420952.8428829,56
1774420952.85908,54
1774420952.8758621,52
1774420952.8940334,49
1774420952.918703,47
1774420952.9253745,45
1774420952.9520035,44
1774420952.95921,42
1774420952.980455,41
1774420952.991626,40
1774420953.0130239,39
1774420953.0257876,37
1774420953.0466604,36
1774420953.0605056,35
1774420953.0793135,33
1774420953.0920568,32
1774420953.111473,31
1774420953.12577,30
1774420953.1425312,30
1774420953.1596122,29
1774420953.1753745,28
1774420953.192967,28
1774420953.2091415,28
1774420953.2255766,28
1774420953.2427151,28
1774420953.2585218,28
1774420953.2765615,28
1774420953.2935586,27
1774420953.3192208,27
1774420953.3317244,27
1774420953.34224,27
1774420953.3668165,27
1774420953.3760307,29
1774420953.39241,33
1774420953.4147787,37
1774420953.4258423,42
1774420953.4433532,48
1774420953.4592576,53
1774420953.4760752,58
1774420953.493868,60
1774420953.510733,61
1774420953.524907,61
1774420953.543155,61
1774420953.5590749,60
1774420953.5750663,59
1774420953.5925794,57
1774420953.6088796,55
1774420953.6308653,53
1774420953.6437302,51
1774420953.6585467,48
1774420953.6759276,46
1774420953.7014785,44
1774420953.7189715,43
1774420953.7270887,42
1774420953.7465937,40
1774420953.7628667,40
1774420953.7781804,38
1774420953.7972765,37
1774420953.8128948,35
1774420953.826424,34
1774420953.846906,33
1774420953.8606539,31
1774420953.8765664,30
1774420953.8942144,29
1774420953.9107597,29
1774420953.9251063,28
1774420953.9426064,28
1774420953.9585457,27
1774420953.9747381,27
1774420953.9935024,27
1774420954.0091748,27
1774420954.0275936,27
1774420954.041902,26
1774420954.0590446,26
1774420954.0861275,26
1774420954.0925596,25
1774420954.109482,26
1774420954.1258097,27
1774420954.144972,30
1774420954.1592193,34
1774420954.1761868,39
1774420954.192546,44
1774420954.2094102,50
1774420954.2255807,55
1774420954.243069,58
1774420954.2612054,60
1774420954.2771559,60
1774420954.2931707,60
1774420954.309391,59
1774420954.3253849,59
1774420954.3426034,57
1774420954.3587756,56
1774420954.3757353,54
1774420954.3941586,51
1774420954.4099395,49
1774420954.4259353,47
1774420954.4493053,44
1774420954.4657454,43
1774420954.4793782,41
1774420954.4913929,40
1774420954.5153058,39
1774420954.5256448,38
1774420954.543623,37
1774420954.5581756,35
1774420954.5773544,34
1774420954.5937636,33
1774420954.6095707,31
1774420954.627291,30
1774420954.6424131,29
1774420954.6603348,29
1774420954.6819446,28
1774420954.6924267,27
1774420954.7120044,27
1774420954.7246456,26
1774420954.7424746,26
1774420954.7592077,26
1774420954.7783067,26
1774420954.7957478,26
1774420954.8173194,26
1774420954.825982,26
1774420954.8492937,25
1774420954.8630943,25
1774420954.8769662,25
1774420954.89307,26
1774420954.913593,28
1774420954.9292994,32
1774420954.9436166,37
1774420954.959054,42
1774420954.9756618,48
1774420954.9934213,54
1774420955.009366,58
1774420955.0254695,60
1774420955.042337,61
1774420955.0590837,61
1774420955.0756829,60
1774420955.098192,60
1774420955.1090875,58
1774420955.1264555,57
1774420955.1424813,55
1774420955.1592498,53
1774420955.175733,51
1774420955.1924868,48
1774420955.2085836,46
1774420955.225621,44
1774420955.2422276,42
1774420955.2585707,41
1774420955.275691,40
1774420955.2914186,39
1774420955.310571,37
1774420955.3246415,36
1774420955.345858,34
1774420955.3596413,33
1774420955.375163,32
1774420955.3934612,31
1774420955.4094255,30
1774420955.4256947,29
1774420955.4438548,28
1774420955.4608765,28
1774420955.477863,27
1774420955.49248,27
1774420955.5102882,27
1774420955.5258908,27
1774420955.5435624,27
1774420955.5625315,27
1774420955.5757601,27
1774420955.594652,27
1774420955.6091232,26
1774420955.6258159,26
1774420955.6425002,26
1774420955.6590881,26
1774420955.676107,27
1774420955.6924388,29
1774420955.709093,32
1774420955.727572,37
1774420955.7434545,42
1774420955.7579067,48
1774420955.7755575,54
1774420955.7915144,58
1774420955.814625,60
1774420955.834003,61
1774420955.8523562,62
1774420955.8587818,61
1774420955.876922,60
1774420955.8987606,59
1774420955.9103837,57
1774420955.927715,55
1774420955.9448016,53
1774420955.9589896,51
1774420955.9759316,49
1774420955.9925387,47
1774420956.0110207,45
1774420956.0257335,44
1774420956.0440285,43
1774420956.0591717,41
1774420956.0759625,40
1774420956.0916324,40
1774420956.107967,38
1774420956.1365154,37
1774420956.145445,36
1774420956.167339,34
1774420956.1840603,33
1774420956.1924381,32
1774420956.2081785,32
1774420956.2279818,31
1774420956.2444081,30
1774420956.2663057,30
1774420956.2824755,30
1774420956.303213,29
1774420956.3092496,29
1774420956.3254564,29
1774420956.3437252,29
1774420956.3622668,29
1774420956.378147,29
1774420956.3944755,28
1774420956.4103081,28
1774420956.4256175,28
1774420956.4424217,28
1774420956.4587457,29
1774420956.483187,32
1774420956.4912198,37
1774420956.5131726,41
1774420956.5258436,47
1774420956.5485518,52
1774420956.5593581,57
1774420956.5775397,60
1774420956.5934052,61
1774420956.611178,61
1774420956.6261742,61
1774420956.6436145,60
1774420956.6592069,59
1774420956.675782,58
1774420956.6937277,56
1774420956.7098784,54
1774420956.7273188,52
1774420956.7453487,49
1774420956.7662423,47
1774420956.7770689,45
1774420956.7931178,44
1774420956.8104138,42
1774420956.8255203,41
1774420956.8416715,40
1774420956.8587863,39
1774420956.8769755,37
1774420956.891228,36
1774420956.9087627,35
1774420956.9268343,33
1774420956.942423,32
1774420956.9581819,31
1774420956.9828527,30
1774420956.9934154,30
1774420957.0102403,29
1774420957.027286,28
1774420957.0426433,28
1774420957.0603878,28
1774420957.0771,28
1774420957.0923693,27
1774420957.1118147,27
1774420957.1256847,27
1774420957.1414118,27
1774420957.1604495,27
1774420957.17665,26
1774420957.1924016,26
1774420957.208603,26
1774420957.2246525,27
1774420957.2425091,29
1774420957.2611983,32
1774420957.2790785,37
1774420957.2911737,42
1774420957.309098,48
1774420957.3257685,54
1774420957.342485,58
1774420957.3633442,61
1774420957.3756752,62
1774420957.3924577,62
1774420957.4098341,62
1774420957.4256873,61
1774420957.442529,60
1774420957.4590638,59
1774420957.477061,57
1774420957.4937906,55
1774420957.5091596,53
1774420957.5256653,50
1774420957.5502205,48
1774420957.5633411,46
1774420957.5770586,44
1774420957.5929508,42
1774420957.6090431,41
1774420957.6309967,40
1774420957.6509264,39
1774420957.6593466,38
1774420957.6756217,36
1774420957.691228,35
1774420957.7132692,33
1774420957.7246697,32
1774420957.7458763,31
1774420957.766015,30
1774420957.7757502,29
1774420957.7941124,29
1774420957.808321,28
1774420957.8261254,28
1774420957.8420708,27
1774420957.8582358,27
1774420957.8769855,27
1774420957.89119,27
1774420957.9102762,27
1774420957.9257412,27
1774420957.9431415,27
1774420957.960465,26
1774420957.9756863,26
1774420957.991374,26
1774420958.0171962,26
1774420958.0256736,28
1774420958.0425792,31
1774420958.0599725,36
1774420958.0757883,40
1774420958.09114,47
1774420958.1114945,52
1774420958.1276257,57
1774420958.142388,61
1774420958.1583226,62
1774420958.1746314,63
1774420958.1924744,63
1774420958.2099686,62
1774420958.2258463,61
1774420958.2423606,59
1774420958.2681696,58
1774420958.2757738,56
1774420958.2970679,54
1774420958.3138509,51
1774420958.325805,49
1774420958.3493245,47
1774420958.3601227,45
1774420958.3775024,44
1774420958.3925474,42
1774420958.4127822,41
1774420958.4269898,40
1774420958.4423862,39
1774420958.4614635,38
1774420958.475738,36
1774420958.49305,35
1774420958.5090632,34
1774420958.5248992,33
1774420958.5413985,32
1774420958.5592766,31
1774420958.576997,31
1774420958.5933528,30
1774420958.6114783,30
1774420958.6293695,29
1774420958.6441302,29
1774420958.660782,29
1774420958.6779776,29
1774420958.692625,29
1774420958.7136984,29
1774420958.7257795,29
1774420958.7441828,28
1774420958.7591515,28
1774420958.7800243,28
1774420958.7928767,28
1774420958.8103225,29
1774420958.825727,32
1774420958.8433423,36
1774420958.8579288,40
1774420958.875484,46
1774420958.891687,52
1774420958.9096324,57
1774420958.925672,60
1774420958.941181,62
1774420958.9604616,62
1774420958.9846065,62
1774420958.9972405,61
1774420959.0103135,60
1774420959.0257294,58
1774420959.0438352,57
1774420959.066916,55
1774420959.0808184,53
1774420959.093169,50
1774420959.108997,48
1774420959.130204,46
1774420959.1425037,45
1774420959.161614,43
1774420959.177313,42
1774420959.1924782,40
1774420959.208969,40
1774420959.2243786,38
1774420959.2434018,37
1774420959.2662592,36
1774420959.2759373,34
1774420959.2922556,33
1774420959.3080783,32
1774420959.3259203,31
1774420959.3423898,30
1774420959.359024,30
1774420959.3757837,29
1774420959.3924222,29
1774420959.4077408,28
1774420959.4283402,28
1774420959.4436257,28
1774420959.4642296,28
1774420959.4768121,28
1774420959.4919474,28
1774420959.509914,28
1774420959.527071,27
1774420959.5423126,27
1774420959.5579891,27
1774420959.5768332,27
1774420959.59936,28
1774420959.6089756,30
1774420959.632811,34
1774420959.642395,39
1774420959.6654246,44
1774420959.6760476,51
1774420959.6948695,56
1774420959.7076826,60
1774420959.733142,62
1774420959.7425323,63
1774420959.7596169,63
1774420959.7795737,62
1774420959.7956183,61
1774420959.810358,60
1774420959.8288844,59
1774420959.8412316,57
1774420959.8608458,55
1774420959.875637,52
1774420959.8922493,50
1774420959.9091237,48
1774420959.9248953,46
1774420959.941201,44
1774420959.9599388,42
1774420959.9800324,41
1774420959.9924512,40
1774420960.010027,39
1774420960.0256493,38
1774420960.0423512,36
1774420960.0591264,35
1774420960.0757177,34
1774420960.0941412,33
1774420960.1088896,32
1774420960.1257098,31
1774420960.1426785,30
1774420960.158101,29
1774420960.1800036,29
1774420960.1959639,28
1774420960.2093737,28
1774420960.2257352,28
1774420960.2423913,28
1774420960.2590969,27
1774420960.275871,27
1774420960.291884,27
1774420960.3080227,27
1774420960.3308554,27
1774420960.3432863,26
1774420960.3638134,26
1774420960.3806295,27
1774420960.3942966,29
1774420960.4143608,32
1774420960.4257271,37
1774420960.442629,42
1774420960.4604356,48
1774420960.474518,54
1774420960.4998674,58
1774420960.5076902,61
1774420960.5324974,62
1774420960.5436156,62
1774420960.5637796,62
1774420960.5764322,61
1774420960.5924225,60
1774420960.6117535,58
1774420960.6271145,56
1774420960.6429162,54
1774420960.6589787,52
1774420960.674937,50
1774420960.691346,48
1774420960.7128487,46
1774420960.7268257,45
1774420960.7423518,43
1774420960.759118,42
1774420960.7843523,40
1774420960.7966766,40
1774420960.811164,38
1774420960.830688,37
1774420960.8424604,35
1774420960.8649287,34
1774420960.8758867,33
1774420960.8920662,32
1774420960.9102137,31
1774420960.928821,31
1774420960.9411929,30
1774420960.961346,30
1774420960.9744658,29
1774420960.9929652,29
1774420961.0090737,29
1774420961.0250843,29
1774420961.0411253,29
1774420961.0603032,29
1774420961.076122,29
1774420961.0937953,28
1774420961.1103,28
1774420961.1267498,28
1774420961.145137,28
1774420961.1688154,28
1774420961.1760328,29
1774420961.1924613,32
1774420961.2085915,36
1774420961.2260664,40
1774420961.2447705,46
1774420961.260274,52
1774420961.2752454,57
1774420961.2923074,60
1774420961.3080719,62
1774420961.3258355,62
1774420961.3410146,62
1774420961.3592496,61
1774420961.3750708,60
1774420961.3912382,58
1774420961.4090264,57
1774420961.42568,55
1774420961.444702,53
1774420961.4629662,50
1774420961.4805386,48
1774420961.4932098,46
1774420961.519154,45
1774420961.5349867,43
1774420961.5423539,42
1774420961.5610526,40
1774420961.57568,40
1774420961.5923202,38
1774420961.6077228,37
1774420961.627664,35
1774420961.6429927,34
1774420961.6587696,33
1774420961.6749983,32
1774420961.6954796,31
1774420961.7090738,30
1774420961.7264247,30
1774420961.7409701,29
1774420961.7580628,29
1774420961.774388,29
1774420961.8005733,28
1774420961.8115969,28
1774420961.8256564,28
1774420961.8497128,28
1774420961.8695498,28
1774420961.8757963,27
1774420961.8982942,27
1774420961.9126616,27
1774420961.9256516,26
1774420961.9424193,27
1774420961.9601593,28
1774420961.9789436,30
1774420961.997002,34
1774420962.0077517,40
1774420962.0274599,45
1774420962.0422556,51
1774420962.0592134,56
1774420962.077124,59
1774420962.0916655,61
1774420962.110485,62
1774420962.1250734,62
1774420962.1411636,61
1774420962.1591609,60
1774420962.1743135,59
1774420962.1978042,58
1774420962.2088764,56
1774420962.2255385,54
1774420962.2421706,52
1774420962.2593672,49
1774420962.2831976,47
1774420962.3010292,45
1774420962.3094351,43
1774420962.326222,42
1774420962.3464603,40
1774420962.359493,40
1774420962.3814535,38
1774420962.3923626,37
1774420962.4132671,35
1774420962.4256244,34
1774420962.4429245,33
1774420962.4591131,32
1774420962.4745507,31
1774420962.4926834,30
1774420962.5093527,29
1774420962.5251777,29
1774420962.5418625,28
1774420962.5577884,28
1774420962.5758917,27
1774420962.5924752,27
1774420962.6080883,27
1774420962.6245878,27
1774420962.6435058,27
1774420962.6596382,27
1774420962.6757874,26
1774420962.7010953,26
1774420962.7147362,26
1774420962.7277837,26
1774420962.7437797,26
1774420962.759628,28
1774420962.7789328,31
1774420962.7940934,36
1774420962.8090196,41
1774420962.825758,47
1774420962.8425128,53
1774420962.8609257,57
1774420962.877182,61
1774420962.8931553,62
1774420962.9075658,62
1774420962.9304152,62
1774420962.9414635,61
1774420962.9594085,61
1774420962.976941,59
1774420962.9996717,58
1774420963.0093136,56
1774420963.0257797,54
1774420963.0435412,51
1774420963.0597417,49
1774420963.0745533,47
1774420963.0941494,45
1774420963.1145606,44
1774420963.1275043,42
1774420963.1467116,41
1774420963.159837,40
1774420963.1787722,39
1774420963.1937027,38
1774420963.2097147,36
1774420963.225789,35
1774420963.2410734,34
1774420963.2577147,33
1774420963.275771,32
1774420963.2924929,31
1774420963.3089752,31
1774420963.3247392,30
1774420963.3425548,30
1774420963.3589175,30
1774420963.3822563,30
1774420963.3936048,30
1774420963.4081483,30
1774420963.425646,29
1774420963.441861,29
1774420963.4606602,29
1774420963.4768555,29
1774420963.4923644,28
1774420963.5099921,28
1774420963.5244172,28
1774420963.5427618,30
1774420963.5588498,33
1774420963.5750713,37
1774420963.5910234,42
1774420963.6076663,48
1774420963.6275115,53
1774420963.6423762,57
1774420963.6589184,60
1774420963.6756952,61
1774420963.6940296,61
1774420963.7078419,61
1774420963.731464,60
1774420963.7414138,59
1774420963.7607946,57
1774420963.7773693,55
1774420963.7964814,53
1774420963.8098817,51
1774420963.8279898,49
1774420963.8500798,47
1774420963.859148,45
1774420963.8768585,44
1774420963.8928149,42
1774420963.9123733,41
1774420963.924729,40
1774420963.9414387,39
1774420963.9608798,37
1774420963.9762862,36
1774420963.9973788,34
1774420964.012301,33
1774420964.0249596,32
1774420964.041791,31
1774420964.060477,30
1774420964.075699,30
1774420964.0923498,29
1774420964.1074464,29
1774420964.1303232,28
1774420964.142433,28
1774420964.1605175,28
1774420964.1752417,28
1774420964.1925633,28
1774420964.2092986,28
1774420964.2254636,27
1774420964.2422466,27
1774420964.259041,27
1774420964.2756233,27
1774420964.294045,26
1774420964.311323,27
1774420964.325697,29
1774420964.3465712,32
1774420964.3607078,37
1774420964.3759322,41
1774420964.3983269,47
1774420964.4093733,53
1774420964.4259381,57
1774420964.4430876,60
1774420964.4606469,61
1774420964.4780035,62
1774420964.492806,61
1774420964.5074952,61
1774420964.5344517,60
1774420964.5417027,58
1774420964.5579154,57
1774420964.5773668,55
1774420964.5937257,53
1774420964.6075103,50
1774420964.6257846,48
1774420964.6423588,46
1774420964.659001,44
1774420964.677938,43
1774420964.698434,41
1774420964.7155392,40
1774420964.7256758,39
1774420964.745145,38
1774420964.760494,36
1774420964.7800243,35
1774420964.7928514,34
1774420964.8121855,33
1774420964.8274124,32
1774420964.850321,31
1774420964.8589814,30
1774420964.875467,29
1774420964.8919666,29
1774420964.9081798,28
1774420964.925785,28
1774420964.9422674,28
1774420964.9574058,28
1774420964.9865522,28
1774420965.002789,27
1774420965.0103416,27
1774420965.025894,27
1774420965.0409274,27
1774420965.059118,27
1774420965.0758145,26
1774420965.0924242,27
1774420965.1089556,28
1774420965.1270795,31
1774420965.1425037,35
1774420965.159113,40
1774420965.1781328,45
1774420965.1962945,51
1774420965.2082388,56
1774420965.2244313,59
1774420965.2419822,61
1774420965.2607787,62
1774420965.2743275,62
1774420965.2926419,61
1774420965.309019,60
1774420965.325592,59
1774420965.346572,57
1774420965.361477,55
1774420965.3832028,53
1774420965.3940105,51
1774420965.4088144,49
1774420965.4258807,47
1774420965.4424312,45
1774420965.459253,44
1774420965.4786477,42
1774420965.4936044,41
1774420965.5097349,40
1774420965.5274518,39
1774420965.5416121,37
1774420965.5656273,36
1774420965.5897262,35
1774420965.5925777,34
1774420965.6105566,33
1774420965.6271396,32
1774420965.641917,31
1774420965.660245,31
1774420965.6745498,30
1774420965.692443,30
1774420965.710059,30
1774420965.7240758,30
1774420965.7458975,30
1774420965.7583559,30
1774420965.7757854,30
1774420965.7935739,29
1774420965.8089278,29
1774420965.828427,29
1774420965.8437235,29
1774420965.8589811,28
1774420965.8758235,29
1774420965.8918638,31
1774420965.9078553,34
1774420965.929672,39
1774420965.946627,44
1774420965.9584599,49
1774420965.9783711,54
1774420965.9924898,58
1774420966.0092528,60
1774420966.0256867,61
1774420966.0469544,61
1774420966.059001,60
1774420966.0773015,59
1774420966.0927134,58
1774420966.1139235,56
1774420966.1240203,55
1774420966.1452038,53
1774420966.158983,50
1774420966.1768131,48
1774420966.1923857,46
1774420966.2095401,45
1774420966.2247376,43
1774420966.2410462,42
1774420966.2592392,40
1774420966.2757225,40
1774420966.2923434,38
1774420966.3090117,37
1774420966.3271437,35
1774420966.3426156,34
1774420966.3591478,33
1774420966.3744957,32
1774420966.3931623,31
1774420966.4084003,30
1774420966.4300969,30
1774420966.442321,29
1774420966.4586217,29
1774420966.477635,28
1774420966.4907415,28
1774420966.5098484,28
1774420966.5282094,28
1774420966.5436873,28
1774420966.5605073,28
1774420966.5769012,28
1774420966.5924132,27
1774420966.6078997,27
1774420966.6272922,27
1774420966.650502,27
1774420966.6713219,28
1774420966.6823914,31
1774420966.6924362,35
1774420966.709135,40
1774420966.7269316,45
1774420966.7436106,51
1774420966.759233,56
1774420966.7773995,59
1774420966.7991524,61
1774420966.8130972,61
1774420966.8269165,61
1774420966.847193,61
1774420966.8584924,60
1774420966.8763995,59
1774420966.8906493,57
1774420966.9116554,55
1774420966.9239502,53
1774420966.9413698,51
1774420966.9617577,49
1774420966.9787674,47
1774420966.99381,45
1774420967.0083246,43
1774420967.0311086,42
1774420967.044926,40
1774420967.0590396,39
1774420967.074479,38
1774420967.093671,36
1774420967.1153653,35
1774420967.1261384,34
1774420967.1463902,33
1774420967.1637049,32
1774420967.1797435,31
1774420967.1947412,30
1774420967.2077816,30
1774420967.2255418,29
1774420967.2424555,29
1774420967.2584229,28
1774420967.2757123,28
1774420967.2913423,28
1774420967.3078725,28
1774420967.3239546,28
1774420967.3424535,28
1774420967.359252,28
1774420967.3793652,27
1774420967.3910086,27
1774420967.4088602,27
1774420967.4258096,27
1774420967.4450936,28
1774420967.4590445,31
1774420967.4821978,35
1774420967.492314,40
1774420967.5091245,45
1774420967.5258653,50
1774420967.546167,55
1774420967.5603316,59
1774420967.5819852,61
1774420967.592494,61
1774420967.60899,61
1774420967.6256247,61
1774420967.6423872,60
1774420967.6585972,59
1774420967.6753843,57
1774420967.691387,56
1774420967.707475,54
1774420967.7255917,52
1774420967.7475305,49
1774420967.760252,48
1774420967.7760878,46
1774420967.7923963,44
1774420967.809614,43
1774420967.8270879,41
1774420967.8513916,40
1774420967.8589084,39
1774420967.882303,38
1774420967.8935447,36
1774420967.9074306,35
1774420967.9270642,34
1774420967.9423797,33
1774420967.9590936,32
1774420967.9917922,31
1774420967.9942772,30
1774420968.0114634,30
1774420968.025968,30
1774420968.0436063,29
1774420968.0585165,29
1774420968.0753393,29
1774420968.0907755,29
1774420968.107407,29
1774420968.1240184,29
1774420968.14408,28
1774420968.163818,28
1774420968.1787844,28
1774420968.191953,28
1774420968.2073436,30
1774420968.2251825,33
1774420968.246447,37
1774420968.2590487,42
1774420968.275693,47
1774420968.2925131,52
1774420968.309006,56
1774420968.325689,59
1774420968.3422647,60
1774420968.3615358,60
1774420968.3740804,60
1774420968.3927279,59
1774420968.4089522,58
1774420968.4259665,57
1774420968.441862,55
1774420968.4577937,54
1774420968.4877403,51
1774420968.4911554,49
1774420968.5126913,47
1774420968.5243857,45
1774420968.5407255,43
1774420968.5590017,42
1774420968.575658,40
1774420968.596879,40
1774420968.6076746,38
1774420968.6257086,37
1774420968.6455326,36
1774420968.6603365,34
1774420968.6799111,33
1774420968.6936858,32
1774420968.71198,31
1774420968.727809,30
1774420968.741613,30
1774420968.7591796,29
1774420968.7758417,29
1774420968.791102,28
1774420968.8078313,28
1774420968.8240461,28
1774420968.84288,28
1774420968.8592813,28
1774420968.8789885,28
1774420968.892341,27
1774420968.9091327,27
1774420968.9268317,27
1774420968.9496555,27
1774420968.9586153,27
1774420968.9744189,30
1774420968.9923878,33
1774420969.016081,38
1774420969.0257554,43
1774420969.0436156,49
1774420969.061593,54
1774420969.0762603,58
1774420969.092325,60
1774420969.110409,62
1774420969.1260648,62
1774420969.1423573,61
1774420969.1593487,61
1774420969.175648,60
1774420969.1910577,59
1774420969.2075906,57
1774420969.2257993,55
1774420969.244388,53
1774420969.258514,51
1774420969.2740538,48
1774420969.2907233,46
1774420969.3090835,44
1774420969.323852,43
1774420969.3481488,41
1774420969.35719,40
1774420969.3760293,39
1774420969.392366,38
1774420969.4149082,36
1774420969.4270422,35
1774420969.4466934,34
1774420969.4576018,33
1774420969.4818895,32
1774420969.4927962,31
1774420969.5090365,30
1774420969.5262594,30
1774420969.5423317,29
1774420969.5588765,29
1774420969.5807455,29
1774420969.5967388,29
1774420969.6104088,28
1774420969.6265163,28
1774420969.6495056,28
1774420969.6592648,28
1774420969.677521,28
1774420969.6906693,27
1774420969.7169397,27
1774420969.7251823,27
1774420969.7423458,29
1774420969.7587335,32
1774420969.776277,37
1774420969.792411,41
1774420969.812312,47
1774420969.8241906,53
1774420969.8474653,57
1774420969.860199,60
1774420969.8762925,61
1774420969.8921247,62
1774420969.9082594,62
1774420969.9251196,61
1774420969.9437475,61
1774420969.9617717,59
1774420969.9752786,58
1774420969.9917445,56
1774420970.0102744,54
1774420970.0256233,52
1774420970.0423458,50
1774420970.0594509,47
1774420970.0760086,46
1774420970.0919282,44
1774420970.109048,43
1774420970.1250536,41
1774420970.1429315,40
1774420970.1591396,39
1774420970.1807654,38
1774420970.191171,36
1774420970.2118945,35
1774420970.2246752,34
1774420970.241529,33
1774420970.2644107,32
1774420970.2763789,32
1774420970.2927556,31
1774420970.3094287,31
1774420970.324099,31
1774420970.3431053,30
1774420970.3572655,30
1774420970.3766954,30
1774420970.3923848,30
1774420970.4104187,30
1774420970.4257803,30
1774420970.4411216,29
1774420970.458438,29
1774420970.4757473,29
1774420970.4913757,30
1774420970.5117967,32
1774420970.524831,35
1774420970.5470502,40
1774420970.557373,45
1774420970.5764897,50
1774420970.5923314,55
1774420970.610775,58
1774420970.62742,60
1774420970.642939,61
1774420970.6591306,61
1774420970.6756415,61
1774420970.695032,60
1774420970.7072046,59
1774420970.7266254,57
1774420970.754778,55
1774420970.758977,53
1774420970.7752564,51
1774420970.8002152,49
1774420970.8149424,47
1774420970.8251348,45
1774420970.849808,44
1774420970.8583548,42
1774420970.8741014,41
1774420970.89245,40
1774420970.9102674,39
1774420970.925824,37
1774420970.9407156,36
1774420970.9589531,35
1774420970.9755805,34
1774420970.9931052,33
1774420971.007875,32
1774420971.0249655,31
1774420971.0423086,30
1774420971.0597672,30
1774420971.0749004,30
1774420971.0926976,29
1774420971.10918,29
1774420971.1324952,29
1774420971.142556,29
1774420971.1591327,29
1774420971.1744509,28
1774420971.196715,28
1774420971.2081144,28
1774420971.2247567,27
1774420971.2488651,28
1774420971.2590075,30
1774420971.277019,33
1774420971.29249,37
1774420971.3107572,42
1774420971.3270276,47
1774420971.3450773,52
1774420971.3593073,56
1774420971.376281,59
1774420971.3938725,60
1774420971.4089718,61
1774420971.424823,61
1774420971.4435873,60
1774420971.4574552,59
1774420971.4759698,58
1774420971.494162,57
1774420971.5092933,55
1774420971.5256155,53
1774420971.5424223,50
1774420971.5590382,48
1774420971.5756092,46
1774420971.5926528,44
1774420971.6076117,42
1774420971.6271558,41
1774420971.642337,40
1774420971.6592371,39
1774420971.6756055,37
1774420971.6923573,36
1774420971.709615,35
1774420971.72458,34
1774420971.7416005,33
1774420971.7577643,32
1774420971.7756777,31
1774420971.7942576,30
1774420971.810497,30
1774420971.8312852,29
1774420971.844184,29
1774420971.8591082,28
1774420971.8821707,28
1774420971.8956883,28
1774420971.9090447,28
1774420971.9258788,28
1774420971.9491436,27
1774420971.9599931,27
1774420971.9812121,27
1774420971.9930952,26
1774420972.0103898,27
1774420972.0272028,28
1774420972.0423908,31
1774420972.0584073,36
1774420972.0770822,40
1774420972.0907502,46
1774420972.1106784,52
1774420972.1252255,56
1774420972.1428008,59
1774420972.1591356,60
1774420972.1756184,60
1774420972.195135,60
1774420972.2073257,60
1774420972.2260406,59
1774420972.243614,58
1774420972.263509,56
1774420972.2776432,55
1774420972.2994494,52
1774420972.3090467,50
1774420972.3258555,48
1774420972.342688,46
1774420972.3580127,44
1774420972.3769975,42
1774420972.3925846,41
1774420972.4090724,40
1774420972.428742,39
1774420972.4436219,37
1774420972.4584396,36
1774420972.4760175,35
1774420972.4921749,34
1774420972.5102022,33
1774420972.5266795,32
1774420972.54031,31
1774420972.559037,31
1774420972.57843,30
1774420972.593061,30
1774420972.6071506,29
1774420972.628578,29
1774420972.6407397,29
1774420972.666759,29
1774420972.680914,29
1774420972.6998236,29
1774420972.7104235,29
1774420972.7238133,28
1774420972.7468572,28
1774420972.7627182,28
1774420972.7763848,28
1774420972.7945921,28
1774420972.8102844,30
1774420972.8268666,34
1774420972.8428628,38
1774420972.8577907,43
1774420972.8745875,49
1774420972.890934,53
1774420972.9069743,57
1774420972.9277408,59
1774420972.9519126,60
1774420972.964394,60
1774420972.975225,59
1774420972.9975863,59
1774420973.0103137,58
1774420973.0349624,56
1774420973.0429218,54
1774420973.0593493,52
1774420973.0756376,50
1774420973.0942285,48
1774420973.1148536,46
1774420973.1246731,44
1774420973.1467905,43
1774420973.162486,41
1774420973.1768966,40
1774420973.194471,39
1774420973.2102695,38
1774420973.225751,36
1774420973.241926,35
1774420973.2590728,34
1774420973.2751753,33
1774420973.2924333,32
1774420973.3091898,31
1774420973.325714,30
1774420973.3423686,30
1774420973.3662233,29
1774420973.373853,29
1774420973.3924694,29
1774420973.4090245,28
1774420973.4249763,28
1774420973.4432752,28
1774420973.457545,28
1774420973.4748974,28
1774420973.4988754,27
1774420973.50994,27
1774420973.5280697,26
1774420973.545431,26
1774420973.5624118,27
1774420973.5772073,29
1774420973.5950036,32
1774420973.607174,37
1774420973.6262012,41
1774420973.6423147,47
1774420973.658245,52
1774420973.6745164,56
1774420973.692401,58
1774420973.7069223,59
1774420973.7245452,59
1774420973.7403288,59
1774420973.763076,58
1774420973.7769496,57
1774420973.7927103,56
1774420973.80916,54
1774420973.8282855,52
1774420973.8423476,50
1774420973.8622663,48
1774420973.8754401,46
1774420973.8966472,43
1774420973.9113832,42
1774420973.9266067,40
1774420973.9423027,40
1774420973.9590738,38
1774420973.9752681,37
1774420973.9912667,35
1774420974.0073285,34
1774420974.0238397,33
1774420974.0423117,32
1774420974.0591023,31
1774420974.0773633,30
1774420974.0923636,29
1774420974.1069045,29
1774420974.1254442,28
1774420974.1423738,28
1774420974.160368,27
1774420974.1743748,27
1774420974.1933985,27
1774420974.2082157,27
1774420974.2243862,27
1774420974.241153,26
1774420974.258917,26
1774420974.2830586,26
1774420974.2913458,25
1774420974.3104284,25
1774420974.3267145,26
1774420974.342454,27
1774420974.3583064,30
1774420974.3742921,35
1774420974.3994484,40
1774420974.4069443,45
1774420974.424668,50
1774420974.442433,55
1774420974.4590783,57
1774420974.4806974,59
1774420974.495903,59
1774420974.5075755,59
1774420974.5343122,58
1774420974.5422096,57
1774420974.5662649,56
1774420974.5735548,54
1774420974.5982518,52
1774420974.6073036,50
1774420974.6256268,48
1774420974.642248,46
1774420974.6610134,44
1774420974.677335,42
1774420974.6906748,40
1774420974.7102692,40
1774420974.7250538,38
1774420974.742315,37
1774420974.7582917,35
1774420974.774334,34
1774420974.7906592,33
1774420974.80925,32
1774420974.8264744,31
1774420974.842262,30
1774420974.8572838,29
1774420974.8744693,28
1774420974.9006984,28
1774420974.90865,27
1774420974.9255998,27
1774420974.9445283,27
1774420974.9616022,27
1774420974.9735124,27
1774420974.9922843,27
1774420975.0089989,26
1774420975.0256271,26
1774420975.0449398,26
1774420975.0590436,26
1774420975.0761201,26
1774420975.0922203,25
1774420975.1083057,26
1774420975.12409,27
1774420975.1403131,31
1774420975.162462,35
1774420975.1784272,40
1774420975.193535,45
1774420975.2085845,51
1774420975.226227,55
1774420975.242485,58
1774420975.2603652,59
1774420975.2763853,59
1774420975.2923694,58
1774420975.3082414,58
1774420975.3254023,56
1774420975.3436866,55
1774420975.3601418,53
1774420975.3769853,52
1774420975.39098,50
1774420975.4088786,48
1774420975.4268222,46
1774420975.4423878,44
1774420975.459808,43
1774420975.4738812,41
1774420975.4924643,40
1774420975.509877,40
1774420975.525679,38
1774420975.542418,37
1774420975.5589287,35
1774420975.579759,34
1774420975.5926743,33
1774420975.6080327,32
1774420975.6256964,31
1774420975.6428556,30
1774420975.6626804,30
1774420975.6751263,29
1774420975.6925302,29
1774420975.706905,29
1774420975.7256024,28
1774420975.7405682,28
1774420975.7592373,28
1774420975.773451,28
1774420975.7902691,28
1774420975.8102393,27
1774420975.838099,27
1774420975.8422756,27
1774420975.858966,26
1774420975.8769317,27
1774420975.8980527,28
1774420975.9078937,31
1774420975.9260654,36
1774420975.9422805,40
1774420975.9569547,45
1774420975.977681,51
1774420975.9933255,55
1774420976.014163,57
1774420976.0256522,58
1774420976.042395,59
1774420976.060363,58
1774420976.0755308,57
1774420976.0927699,56
1774420976.1073692,55
1774420976.1259592,53
1774420976.1422896,51
1774420976.158507,49
1774420976.1735246,47
1774420976.19705,45
1774420976.2087755,44
1774420976.2283018,42
1774420976.2427566,41
1774420976.2628937,40
1774420976.275739,38
1774420976.292429,37
1774420976.3091047,36
1774420976.3257432,34
1774420976.346462,33
1774420976.360001,32
1774420976.3807616,31
1774420976.3923295,30
1774420976.4102638,29
1774420976.4256804,28
1774420976.4425938,28
1774420976.459678,27
1774420976.4747162,27
1774420976.4922614,27
1774420976.5069175,27
1774420976.5280206,27
1774420976.5435982,26
1774420976.5610378,26
1774420976.5757868,26
1774420976.5985036,26
1774420976.6069403,25
1774420976.632889,25
1774420976.6435146,25
1774420976.6607718,26
1774420976.6756086,29
1774420976.6926355,33
1774420976.7077534,38
1774420976.7257018,43
1774420976.7425547,49
1774420976.7609832,54
1774420976.7769904,57
1774420976.793056,59
1774420976.8132083,60
1774420976.825188,60
1774420976.8410497,60
1774420976.8573422,59
1774420976.8753076,58
1774420976.8938494,56
1774420976.9067357,54
1774420976.9303825,52
1774420976.9400632,50
1774420976.9685764,48
1774420976.9818978,46
1774420976.9948025,44
1774420977.0098016,42
1774420977.0285888,41
1774420977.042317,40
1774420977.059204,39
1774420977.074827,37
1774420977.0910456,36
1774420977.1087222,35
1774420977.1259599,33
1774420977.1438086,32
1774420977.1632845,31
1774420977.1771982,30
1774420977.1923673,29
1774420977.2094152,29
1774420977.2250202,28
1774420977.2412171,28
1774420977.257042,27
1774420977.2742472,27
1774420977.3037832,27
1774420977.3091567,26
1774420977.3240442,26
1774420977.3438687,26
1774420977.3603113,26
1774420977.3756616,26
1774420977.3922505,26
1774420977.4090464,25
1774420977.4257693,25
1774420977.4456906,25
1774420977.4572206,26
1774420977.4757092,28
1774420977.4923716,32
1774420977.5093849,38
1774420977.5257466,43
1774420977.545237,49
1774420977.5596144,54
1774420977.5765128,58
1774420977.5925055,60
1774420977.6070335,61
1774420977.6244218,61
1774420977.642367,60
1774420977.658949,59
1774420977.6757889,58
1774420977.6924117,56
1774420977.706682,54
1774420977.726111,52
1774420977.7417471,50
1774420977.7614996,48
1774420977.7758589,46
1774420977.7924533,45
1774420977.813274,43
1774420977.831892,41
1774420977.8423047,40
1774420977.8603835,39
1774420977.875837,38
1774420977.8954802,36
1774420977.9069917,35
1774420977.9258473,34
1774420977.9437044,32
1774420977.9595833,31
1774420977.9758503,30
1774420977.9937143,29
1774420978.0080187,29
1774420978.0236695,28
1774420978.0424755,28
1774420978.0604887,27
1774420978.0758355,27
1774420978.0923662,27
1774420978.1116714,27
1774420978.1257756,27
1774420978.1404054,27
1774420978.1601837,27
1774420978.1733446,27
1774420978.1936824,27
1774420978.2090511,26
1774420978.2239478,26
1774420978.2417054,26
1774420978.2625048,26
1774420978.2757576,28
1774420978.294719,31
1774420978.3106613,35
1774420978.3257582,40
1774420978.3423223,46
1774420978.356974,52
1774420978.3747773,57
1774420978.3929338,60
1774420978.4067676,62
1774420978.4323306,62
1774420978.4423761,61
1774420978.462807,60
1774420978.474514,59
1774420978.4925451,57
1774420978.510678,55
1774420978.5256355,53
1774420978.5468647,51
1774420978.56125,49
1774420978.5804584,48
1774420978.5924294,46
1774420978.607173,45
1774420978.6258743,43
1774420978.646321,42
1774420978.659134,40
1774420978.6734505,40
1774420978.6936388,38
1774420978.71023,37
1774420978.7261453,36
1774420978.7421758,34
1774420978.7582703,33
1774420978.7800815,32
1774420978.7906628,31
1774420978.8084817,31
1774420978.8260117,30
1774420978.8457901,30
1774420978.8664978,29
1774420978.8759809,29
1774420978.8923352,29
1774420978.908839,29
1774420978.9330673,29
1774420978.9400923,29
1774420978.9571493,29
1774420978.976933,29
1774420978.993657,29
1774420979.0115347,28
1774420979.0255766,28
1774420979.045096,28
1774420979.0606277,30
1774420979.0766418,33
1774420979.0920556,37
1774420979.108075,42
1774420979.1242537,47
1774420979.142763,53
1774420979.1589699,57
1774420979.1757417,60
1774420979.1925056,61
1774420979.2077603,61
1774420979.2257485,60
1774420979.2422998,59
1774420979.2638397,58
1774420979.275764,56
1774420979.2924223,54
1774420979.3075328,52
1774420979.3255217,50
1774420979.34873,48
1774420979.3590548,47
1774420979.3772235,45
1774420979.393793,44
1774420979.4143493,43
1774420979.4257784,41
1774420979.44154,40
1774420979.4576297,39
1774420979.473599,38
1774420979.490288,36
1774420979.5088983,35
1774420979.5277789,34
1774420979.5525625,33
1774420979.5582726,32
1774420979.5796707,31
1774420979.5923479,30
1774420979.6076138,30
1774420979.6335907,29
1774420979.6425302,29
1774420979.658636,29
1774420979.6741166,29
1774420979.6965232,29
1774420979.7125108,29
1774420979.7233124,28
1774420979.7444954,28
1774420979.7573683,28
1774420979.7736547,28
1774420979.791685,27
1774420979.8066914,28
1774420979.8257997,29
1774420979.8470266,32
1774420979.8576684,36
1774420979.8830192,41
1774420979.8904655,47
1774420979.9135282,53
1774420979.9257755,57
1774420979.946092,61
1774420979.9571548,62
1774420979.9777226,63
1774420979.9940283,62
1774420980.0089076,61
1774420980.0269697,60
1774420980.0443504,59
1774420980.0600033,57
1774420980.0743494,55
1774420980.0937548,53
1774420980.1086085,51
1774420980.1244836,49
1774420980.1407573,47
1774420980.1576605,45
1774420980.1784122,44
1774420980.1936452,42
1774420980.208942,41
1774420980.225421,40
1774420980.2422097,39
1774420980.2574162,38
1774420980.2775369,36
1774420980.293768,35
1774420980.3104348,34
1774420980.3259492,33
1774420980.3431337,32
1774420980.3625176,31
1774420980.3755846,30
1774420980.3936942,30
1774420980.4099867,29
1774420980.427018,29
1774420980.4426079,29
1774420980.459422,29
1774420980.4764433,29
1774420980.4925485,28
1774420980.5088608,28
1774420980.5247457,28
1774420980.542205,28
1774420980.5565462,27
1774420980.5788388,27
1774420980.5923653,28
1774420980.6076918,30
1774420980.6256468,33
1774420980.6440756,38
1774420980.6638575,43
1774420980.6776683,49
1774420980.699702,55
1774420980.714901,59
1774420980.7267456,62
1774420980.746601,63
1774420980.7633247,63
1774420980.7797763,63
1774420980.7923374,62
1774420980.810293,61
1774420980.826913,59
1774420980.8436992,57
1774420980.8589952,55
1774420980.8756888,53
1774420980.8919132,51
1774420980.9067378,49
1774420980.923202,47
1774420980.9448411,45
1774420980.9592881,44
1774420980.9769764,42
1774420980.993623,41
1774420981.008975,40
1774420981.0233147,38
1774420981.0423477,37
1774420981.059221,36
1774420981.0758653,34
1774420981.093148,33
1774420981.1137087,32
1774420981.1271598,31
1774420981.1456873,31
1774420981.158943,30
1774420981.17561,29
1774420981.1927354,29
1774420981.2097664,29
1774420981.2236724,29
1774420981.2401536,29
1774420981.2577722,28
1774420981.2756855,28
1774420981.2920523,28
1774420981.309202,28
1774420981.323163,27
1774420981.3424222,27
1774420981.3564968,27
1774420981.3756566,27
1774420981.3923693,29
1774420981.4126518,33
1774420981.4337237,38
1774420981.4469662,42
1774420981.459055,49
1774420981.4739084,54
1774420981.493976,59
1774420981.510667,62
1774420981.5287414,63
1774420981.5447154,63
1774420981.558986,62
1774420981.5756814,62
1774420981.592125,60
1774420981.6069863,59
1774420981.6244106,57
1774420981.63989,55
1774420981.6587336,53
1774420981.6763797,51
1774420981.6913884,49
1774420981.710134,47
1774420981.7270715,45
1774420981.7403994,44
1774420981.7572443,43
1774420981.7829788,41
1774420981.7910116,40
1774420981.8090591,39
1774420981.8273401,38
1774420981.8421657,36
1774420981.8591638,35
1774420981.8788116,34
1774420981.8936083,33
1774420981.9088922,32
1774420981.9258618,31
1774420981.940999,31
1774420981.9585953,30
1774420981.9739914,30
1774420981.992433,30
1774420982.012613,30
1774420982.027529,30
1774420982.04232,30
1774420982.0592535,30
1774420982.0774245,30
1774420982.0904245,29
1774420982.1175497,29
1774420982.1248794,29
1774420982.143447,28
1774420982.1592088,28
1774420982.1757672,29
1774420982.1927009,32
1774420982.2101843,35
1774420982.2255042,40
1774420982.2408376,46
1774420982.2598293,52
1774420982.2756917,57
1774420982.2924259,60
1774420982.3079817,62
1774420982.3239486,63
1774420982.3399625,62
1774420982.3592396,61
1774420982.3757982,60
1774420982.3925495,59
1774420982.4102368,57
1774420982.4256837,55
1774420982.4419637,53
1774420982.4590142,51
1774420982.4756877,49
1774420982.4915934,47
1774420982.510294,46
1774420982.5232742,44
1774420982.5439613,43
1774420982.5585663,42
1774420982.5756319,40
1774420982.592102,39
1774420982.606974,38
1774420982.6243322,36
1774420982.6462052,35
1774420982.6605918,34
1774420982.6823204,33
1774420982.6922483,32
1774420982.7146025,31
1774420982.7255883,31
1774420982.7440681,30
1774420982.7591326,30
1774420982.775899,30
1774420982.799,30
1774420982.8092568,30
1774420982.8257618,29
1774420982.842406,29
1774420982.8584216,29
1774420982.8763154,29
1774420982.8940518,28
1774420982.9100282,28
1774420982.9250753,28
1774420982.942022,28
1774420982.9578786,29
1774420982.9734619,31
1774420982.9923155,35
1774420983.018414,40
1774420983.0256772,46
1774420983.042,52
1774420983.0595503,57
1774420983.0773375,61
1774420983.0923853,63
1774420983.1103058,63
1774420983.1323056,63
1774420983.1483533,62
1774420983.1589515,61
1774420983.1785972,60
1774420983.1949732,59
1774420983.2078953,57
1774420983.2266011,54
1774420983.2460027,52
1774420983.2585196,50
1774420983.2762127,48
1774420983.290427,46
1774420983.3075776,44
1774420983.3230472,43
1774420983.34224,41
1774420983.356399,40
1774420983.3792255,39
1774420983.3923168,38
1774420983.4120243,36
1774420983.4265406,35
1774420983.4425302,34
1774420983.4591212,32
1774420983.4823582,32
1774420983.4911091,31
1774420983.5127938,30
1774420983.5245621,30
1774420983.544441,29
1774420983.562849,29
1774420983.5788531,29
1774420983.5923994,29
1774420983.6074123,28
1774420983.6253414,28
1774420983.6426241,28
1774420983.6588604,28
1774420983.67486,28
1774420983.6906025,27
1774420983.709208,27
1774420983.7230403,27
1774420983.746555,28
1774420983.7603066,30
1774420983.7791376,34
1774420983.7939715,40
1774420983.808099,45
1774420983.825765,51
1774420983.8422804,56
1774420983.8603435,60
1774420983.8766658,62
1774420983.8994892,63
1774420983.9091213,63
1774420983.9296997,62
1774420983.9436796,61
1774420983.9616575,60
1774420983.9771817,59
1774420983.9936686,57
1774420984.0089285,55
1774420984.0250041,52
1774420984.040858,50
1774420984.0589025,48
1774420984.076818,46
1774420984.0899637,45
1774420984.109201,43
1774420984.123058,41
1774420984.143093,40
1774420984.1567247,40
1774420984.1820252,38
1774420984.1976006,37
1774420984.2145855,35
1774420984.225561,34
1774420984.2459123,33
1774420984.259743,32
1774420984.2756283,32
1774420984.2926748,31
1774420984.310292,30
1774420984.3286808,30
1774420984.3435433,30
1774420984.3590784,29
1774420984.3756878,29
1774420984.3947382,29
1774420984.4077566,29
1774420984.4244096,29
1774420984.4427142,29
1774420984.4589212,29
1774420984.4758203,28
1774420984.49263,28
1774420984.509031,28
1774420984.5233746,28
1774420984.542227,30
1774420984.5586145,34
1774420984.5755124,38
1774420984.5935822,43
1774420984.610034,49
1774420984.6229894,55
1774420984.646636,59
1774420984.662899,62
1774420984.677004,63
1774420984.6923344,63
1774420984.7108903,62
1774420984.724782,61
1774420984.7415776,60
1774420984.7638566,58
1774420984.7738469,56
1774420984.7898636,54
1774420984.810639,52
1774420984.825132,50
1774420984.8436968,48
1774420984.8600063,47
1774420984.875759,45
1774420984.8903878,44
1774420984.9144773,42
1774420984.92314,41
1774420984.9452949,40
1774420984.9628682,39
1774420984.9806914,37
1774420984.997741,36
1774420985.0131462,34
1774420985.0297353,33
1774420985.0458312,32
1774420985.0617185,32
1774420985.0764768,31
1774420985.0922823,30
1774420985.108719,30
1774420985.1247742,30
1774420985.1437771,30
1774420985.1572862,29
1774420985.177126,29
1774420985.1928127,29
1774420985.2066631,29
1774420985.225644,29
1774420985.2408512,28
1774420985.2599068,28
1774420985.2827702,28
1774420985.2926826,28
1774420985.311153,30
1774420985.3306317,33
1774420985.3435614,38
1774420985.3628361,42
1774420985.3791842,49
1774420985.393674,54
1774420985.4073765,59
1774420985.4253323,61
1774420985.4427466,63
1774420985.4590986,63
1774420985.474828,62
1774420985.4908965,61
1774420985.5069368,60
1774420985.525789,59
1774420985.542273,57
1774420985.558523,55
1774420985.5758154,53
1774420985.5942752,51
1774420985.6120594,48
1774420985.626045,46
1774420985.6438315,45
1774420985.6599348,43
1774420985.676841,41
1774420985.6925375,40
1774420985.7089102,39
1774420985.7229335,38
1774420985.7458885,37
1774420985.7592213,35
1774420985.7770295,34
1774420985.7945526,33
1774420985.810258,32
1774420985.8259642,31
1774420985.8421679,30
1774420985.8601902,30
1774420985.8730805,29
1774420985.8947465,29
1774420985.9098306,29
1774420985.927849,28
1774420985.9435167,28
1774420985.9588866,28
1774420985.9769032,28
1774420985.9966815,28
1774420986.0116866,27
1774420986.0254953,27
1774420986.042346,27
1774420986.058755,27
1774420986.0751953,28
1774420986.0904164,30
1774420986.1088893,35
1774420986.1230004,40
1774420986.1423132,45
1774420986.1589005,51
1774420986.1749873,56
1774420986.1908906,60
1774420986.207085,62
1774420986.2232945,62
1774420986.2414818,62
1774420986.2589073,62
1774420986.2768981,61
1774420986.2939339,60
1774420986.3110106,58
1774420986.3327858,57
1774420986.3436077,54
1774420986.3611195,52
1774420986.3760686,50
1774420986.3923044,48
1774420986.4089847,46
1774420986.4259071,44
1774420986.442419,42
1774420986.459265,41
1774420986.4756086,40
1774420986.4912992,39
1774420986.510876,37
1774420986.5232546,36
1774420986.542869,35
1774420986.5589259,34
1774420986.576888,33
1774420986.590614,32
1774420986.6099997,31
1774420986.6256797,30
1774420986.6407032,30
1774420986.6589677,29
1774420986.6769366,29
1774420986.6983583,29
1774420986.7147038,29
1774420986.7304037,29
1774420986.7431839,29
1774420986.7588785,28
1774420986.7756865,28
1774420986.7968655,28
1774420986.811763,28
1774420986.8286026,27
1774420986.8435807,28
1774420986.8593895,30
1774420986.876235,34
1774420986.8929536,38
1774420986.9097888,43
1774420986.9258552,49
1774420986.9395401,54
1774420986.962702,59
1774420986.9737687,62
1774420986.9898186,62
1774420987.0097797,62
1774420987.0353968,61
1774420987.0435362,60
1774420987.059077,58
1774420987.0763562,57
1774420987.0924876,55
1774420987.1100707,53
1774420987.12329,50
1774420987.1440861,48
1774420987.1570463,46
1774420987.1802104,44
1774420987.1911905,43
1774420987.2139163,41
1774420987.2239723,40
1774420987.2411013,39
1774420987.2587366,38
1774420987.2737987,36
1774420987.2923105,35
1774420987.3064349,34
1774420987.3249896,32
1774420987.3410149,31
1774420987.364492,30
1774420987.3729439,30
1774420987.4008677,29
1774420987.4072485,29
1774420987.4358118,28
1774420987.4417193,28
1774420987.460911,28
1774420987.4824395,28
1774420987.4938693,28
1774420987.5145612,28
1774420987.5258026,28
1774420987.542266,27
1774420987.5624862,27
1774420987.5744314,27
1774420987.592842,27
1774420987.609031,27
1774420987.6258862,30
1774420987.6410139,34
1774420987.6570015,39
1774420987.673184,43
1774420987.6922455,49
1774420987.7062101,54
1774420987.7256377,58
1774420987.7436905,60
1774420987.7585473,61
1774420987.7756786,61
1774420987.7924845,61
1774420987.8102171,60
1774420987.8256176,59
1774420987.842449,57
1774420987.863603,56
1774420987.8802,53
1774420987.8968546,51
1774420987.9089894,49
1774420987.9247096,47
1774420987.9437695,45
1774420987.9561865,43
1774420987.9769595,41
1774420987.992764,40
1774420988.0109904,39
1774420988.0248933,38
1774420988.0398736,36
1774420988.056916,35
1774420988.073323,34
1774420988.0932078,32
1774420988.106239,31
1774420988.1256053,30
1774420988.1422265,30
1774420988.1589196,29
1774420988.1727984,29
1774420988.199702,28
1774420988.2072966,28
1774420988.223642,28
1774420988.2427516,28
1774420988.2581222,27
1774420988.2769651,27
1774420988.292334,27
1774420988.3089573,27
1774420988.3267155,27
1774420988.3424551,26
1774420988.3606606,26
1774420988.373701,26
1774420988.3921394,27
1774420988.408901,30
1774420988.4256992,34
1774420988.4403455,39
1774420988.4564755,45
1774420988.47437,51
1774420988.4935505,56
1774420988.5072095,59
1774420988.5256,61
1774420988.5399544,62
1774420988.5623448,61
1774420988.5732462,61
1774420988.5976996,60
1774420988.6079063,59
1774420988.6309392,57
1774420988.6464722,56
1774420988.6658826,53
1774420988.676317,51
1774420988.692409,49
1774420988.7091498,46
1774420988.7271435,44
1774420988.7433283,43
1774420988.7588649,41
1774420988.775543,40
1774420988.7912972,39
1774420988.807947,37
1774420988.8230433,36
1774420988.84241,34
1774420988.8606377,33
1774420988.87361,32
1774420988.896182,31
1774420988.9062302,30
1774420988.9265194,29
1774420988.9406457,29
1774420988.9599724,28
1774420988.9741635,28
1774420988.9975038,27
1774420989.0106926,27
1774420989.031056,27
1774420989.042547,27
1774420989.0610025,27
1774420989.0791793,27
1774420989.0931697,27
1774420989.1088243,26
1774420989.1229308,26
1774420989.1436079,26
1774420989.1590645,26
1774420989.177351,27
1774420989.1897812,29
1774420989.2074633,33
1774420989.2229216,38
1774420989.2400982,43
1774420989.259353,49
1774420989.2756839,54
1774420989.292195,58
1774420989.306718,60
1774420989.3260608,61
1774420989.342519,61
1774420989.3562396,61
1774420989.3758035,60
1774420989.3948288,59
1774420989.4089081,57
1774420989.4268887,55
1774420989.4454994,53
1774420989.4590688,51
1774420989.473865,49
1774420989.4908268,47
1774420989.5068848,45
1774420989.5251517,43
1774420989.5424304,42
1774420989.5591228,41
1774420989.5755818,40
1774420989.592497,38
1774420989.608941,37
1774420989.6308653,36
1774420989.6427646,34
1774420989.6603506,33
1774420989.6746254,32
1774420989.692206,31
1774420989.7071059,31
1774420989.725611,30
1774420989.7418551,30
1774420989.7608232,29
1774420989.776496,29
1774420989.792891,29
1774420989.8087502,29
1774420989.8248117,29
1774420989.840333,29
1774420989.8589923,29
1774420989.8733883,28
1774420989.9044049,28
1774420989.9100091,28
1774420989.9255416,27
1774420989.9436355,27
1774420989.9625628,28
1774420989.9784384,29
1774420989.9924333,32
1774420990.0090067,37
1774420990.0269156,41
1774420990.0425227,47
1774420990.0589,53
1774420990.0785482,57
1774420990.0923867,59
1774420990.1066568,60
1774420990.1283002,60
1774420990.1418161,60
1774420990.1571407,59
1774420990.1733274,58
1774420990.1943169,56
1774420990.2086103,54
1774420990.224652,52
1774420990.2420616,50
1774420990.2587945,48
1774420990.2736807,46
1774420990.292476,45
1774420990.3088868,43
1774420990.334474,42
1774420990.3500485,40
1774420990.359919,40
1774420990.3813224,38
1774420990.3930283,37
1774420990.4089117,35
1774420990.4256246,34
1774420990.442399,33
1774420990.4590003,32
1774420990.4747005,31
1774420990.4971569,30
1774420990.5062122,30
1774420990.52742,29
1774420990.541534,29
1774420990.5588999,28
1774420990.5736878,28
1774420990.5921257,28
1774420990.6074762,28
1774420990.6234465,28
1774420990.6396394,28
1774420990.6591043,28
1774420990.6756918,27
1774420990.6919453,27
1774420990.7087286,27
1774420990.726241,26
1774420990.7427404,26
1774420990.7574315,28
1774420990.7765296,31
1774420990.791423,35
1774420990.8144648,40
1774420990.8258228,46
1774420990.8446274,52
1774420990.8591707,56
1774420990.8781188,59
1774420990.8930833,61
1774420990.907634,61
1774420990.9230065,61
1774420990.94007,60
1774420990.9585676,59
1774420990.9750562,58
1774420990.9898727,56
1774420991.0088313,54
1774420991.0365071,52
1774420991.0424442,50
1774420991.0661068,48
1774420991.085678,46
1774420991.09834,44
1774420991.1089652,42
1774420991.125706,41
1774420991.1480632,40
1774420991.1623518,39
1774420991.1821303,37
1774420991.1923234,36
1774420991.2106953,35
1774420991.2244265,33
1774420991.242066,32
1774420991.2628307,31
1774420991.274626,31
1774420991.2938607,30
1774420991.3091192,29
1774420991.3250875,29
1774420991.3407547,28
1774420991.3575444,28
1774420991.3755693,28
1774420991.3949704,27
1774420991.4088798,27
1774420991.43285,27
1774420991.4397972,27
1774420991.458943,27
1774420991.4729002,27
1774420991.4922755,26
1774420991.5107448,26
1774420991.5289166,26
1774420991.5446362,26
1774420991.5591223,27
1774420991.5726829,30
1774420991.5923083,34
1774420991.607482,40
1774420991.626625,45
1774420991.6424208,51
1774420991.659137,56
1774420991.675732,59
1774420991.691634,60
1774420991.7069986,61
1774420991.725728,60
1774420991.7397394,60
1774420991.7598479,59
1774420991.7768948,57
1774420991.792234,56
1774420991.8125226,54
1774420991.835337,52
1774420991.8394668,50
1774420991.8589718,47
1774420991.8743248,45
1774420991.892319,44
1774420991.908183,42
1774420991.9263277,41
1774420991.9422202,40
1774420991.9600735,39
1774420991.9757316,38
1774420991.9924595,36
1774420992.0094986,35
1774420992.0256083,34
1774420992.041445,33
1774420992.0588782,32
1774420992.0765972,31
1774420992.0924063,30
1774420992.109951,30
1774420992.1257198,29
1774420992.1436083,29
1774420992.1653185,28
1774420992.1750386,28
1774420992.1935205,28
1774420992.2059257,28
1774420992.2231257,28
1774420992.24047,28
1774420992.259256,28
1774420992.2738798,28
1774420992.2939775,27
1774420992.3158433,27
1774420992.3256426,27
1774420992.3406389,27
1774420992.3570213,28
1774420992.3782618,31
1774420992.3935816,36
1774420992.409065,40
1774420992.4349546,46
1774420992.4423327,52
1774420992.4589407,56
1774420992.4759314,59
1774420992.4923143,60
1774420992.5062168,60
1774420992.5260437,59
1774420992.5421705,58
1774420992.5641317,57
1774420992.5731237,55
1774420992.5926318,54
1774420992.6097708,52
1774420992.6255524,50
1774420992.6422477,48
1774420992.659005,46
1774420992.6751611,44
1774420992.692209,43
1774420992.7071035,41
1774420992.723268,40
1774420992.7393155,40
1774420992.7592053,38
1774420992.7755969,37
1774420992.7979996,35
1774420992.8112378,34
1774420992.8255332,32
1774420992.845546,31
1774420992.859054,30
1774420992.8743942,30
1774420992.8923264,29
1774420992.906553,28
1774420992.9306762,28
1774420992.9404685,28
1774420992.959611,28
1774420992.9742742,28
1774420992.993774,28
1774420993.0091312,28
1774420993.0258358,28
1774420993.039792,27
1774420993.057944,27
1774420993.0740066,27
1774420993.09225,26
1774420993.114646,26
1774420993.1246006,27
1774420993.1395898,29
1774420993.1570241,33
1774420993.177507,38
1774420993.194583,43
1774420993.2063708,49
1774420993.2237334,54
1774420993.2396486,57
1774420993.2630167,60
1774420993.2747574,60
1774420993.2926261,60
1774420993.3084636,59
1774420993.3268828,58
1774420993.3391562,57
1774420993.3615818,56
1774420993.3778052,54
1774420993.3936687,52
1774420993.409672,50
1774420993.4257698,48
1774420993.4422224,46
1774420993.4577367,44
1774420993.4749236,42
1774420993.4897535,41
1774420993.5143108,40
1774420993.5294201,39
1774420993.5414762,38
1774420993.559167,36
1774420993.5790067,35
1774420993.5922356,33
1774420993.6089032,32
1774420993.625753,31
1774420993.6396267,30
1774420993.6601827,30
1774420993.6773562,29
1774420993.6925614,28
1774420993.7071598,28
1774420993.7245514,28
1774420993.7432334,27
1774420993.7586064,27
1774420993.7742784,27
1774420993.7903054,27
1774420993.8064308,27
1774420993.8269904,27
1774420993.8457239,27
1774420993.8591287,26
1774420993.875676,26
1774420993.8929296,26
1774420993.9157913,27
1774420993.9233515,29
1774420993.9462428,33
1774420993.9564,39
1774420993.9799054,44
1774420993.9982224,50
1774420994.0119054,55
1774420994.0280354,59
1774420994.0424008,60
1774420994.0611007,61
1774420994.0765119,61
1774420994.093114,60
1774420994.1076977,59
1774420994.1233234,58
1774420994.1404958,56
1774420994.1564753,54
1774420994.1774132,52
1774420994.189253,50
1774420994.2059667,48
1774420994.2228749,46
1774420994.2419522,44
1774420994.2608898,43
1774420994.28155,41
1774420994.2934563,40
1774420994.31195,40
1774420994.325678,38
1774420994.3424833,37
1774420994.3615196,36
1774420994.375576,34
1774420994.3939028,33
1774420994.4121366,32
1774420994.4288294,31
1774420994.4422555,31
1774420994.4588697,30
1774420994.47577,30
1774420994.4926012,29
1774420994.5086203,29
1774420994.522424,29
1774420994.5407968,29
1774420994.556663,29
1774420994.5756266,29
1774420994.5929585,28
1774420994.614651,28
1774420994.6269422,28
1774420994.6396332,27
1774420994.6589162,27
1774420994.6782603,28
1774420994.6935256,31
1774420994.708882,35
1774420994.726931,40
1774420994.7461176,45
1774420994.756529,50
1774420994.780202,55
1774420994.7932346,58
1774420994.812672,60
1774420994.825525,60
1774420994.8447592,60
1774420994.8602822,59
1774420994.8739014,58
1774420994.889656,56
1774420994.9083767,55
1774420994.9224584,53
1774420994.93955,51
1774420994.9558227,49
1774420994.9811926,47
1774420994.9892914,45
1774420995.0106764,44
1774420995.0256667,42
1774420995.0498703,41
1774420995.061906,40
1774420995.0817525,39
1774420995.0932426,38
1774420995.1090045,36
1774420995.1255908,35
1774420995.1463308,34
1774420995.1589527,32
1774420995.1772237,31
1774420995.193009,31
1774420995.2086468,30
1774420995.2239704,30
1774420995.2408648,29
1774420995.2569385,29
1774420995.2774475,29
1774420995.2896032,29
1774420995.3200803,29
1774420995.322591,29
1774420995.3423653,29
1774420995.3570051,28
1774420995.3797078,28
1774420995.3895512,28
1774420995.4146106,28
1774420995.4247923,29
1774420995.447412,32
1774420995.4601536,37
1774420995.4756594,41
1774420995.4923248,47
1774420995.508132,52
1774420995.5256846,56
1774420995.5423396,59
1774420995.5585234,60
1774420995.5738888,60
1774420995.5895524,60
1774420995.6059687,59
1774420995.6256452,58
1774420995.6423383,57
1774420995.658286,55
1774420995.6769462,53
1774420995.6902168,51
1774420995.7099054,49
1774420995.7232156,47
1774420995.7396646,45
1774420995.7604115,43
1774420995.7805166,42
1774420995.789806,40
1774420995.8091202,40
1774420995.8256867,38
1774420995.8424156,37
1774420995.8591154,36
1774420995.874902,34
1774420995.8922298,33
1774420995.9091141,32
1774420995.9251745,31
1774420995.943191,30
1774420995.9589415,30
1774420995.9732292,29
1774420995.9892302,29
1774420996.0058222,29
1774420996.0254798,28
1774420996.043551,28
1774420996.0590346,28
1774420996.0767858,28
1774420996.0906403,28
1774420996.1092143,28
1774420996.1247542,27
1774420996.1435935,27
1774420996.1595845,27
1774420996.1779869,28
1774420996.1922655,30
1774420996.2090456,34
1774420996.2233963,39
1774420996.2421985,44
1774420996.2589123,50
1774420996.2764657,55
1774420996.292475,59
1774420996.3088994,61
1774420996.327622,61
1774420996.3405867,61
1774420996.3567173,61
1774420996.373287,60
1774420996.39396,59
1774420996.4148238,57
1774420996.425536,55
1774420996.4435697,53
1774420996.4590068,50
1774420996.4755278,48
1774420996.4904082,46
1774420996.509205,44
1774420996.5227106,42
1774420996.5479841,41
1774420996.555684,40
1774420996.5799797,39
1774420996.5891473,37
1774420996.6068106,36
1774420996.6259162,34
1774420996.6432183,33
1774420996.657436,32
1774420996.67515,31
1774420996.6909611,30
1774420996.7071064,29
1774420996.7223861,29
1774420996.7392302,28
1774420996.7579226,28
1774420996.7757442,27
1774420996.7954688,27
1774420996.8099108,27
1774420996.8255932,27
1774420996.842288,27
1774420996.8562763,26
1774420996.880395,26
1774420996.891939,26
1774420996.9087315,25
1774420996.9268997,25
1774420996.9461133,26
1774420996.9556234,29
1774420996.9787807,33
1774420996.992251,38
1774420997.008044,43
1774420997.0261216,48
1774420997.0409424,53
1774420997.0590754,56
1774420997.0746698,58
1774420997.0895627,59
1774420997.1090462,58
1774420997.1224644,58
1774420997.142724,57
1774420997.1589906,56
1774420997.1791372,54
1774420997.1923816,52
1774420997.20711,50
1774420997.2253585,48
1774420997.2424786,46
1774420997.257698,43
1774420997.2755969,41
1774420997.2904897,40
1774420997.3108594,39
1774420997.3232062,38
1774420997.3450778,36
1774420997.3589826,35
1774420997.376085,34
1774420997.3923776,32
1774420997.4090269,31
1774420997.4250386,30
1774420997.4410515,29
1774420997.4560962,28
1774420997.4730098,28
1774420997.4891865,27
1774420997.5090308,27
1774420997.531067,26
1774420997.5427322,26
1774420997.562217,26
1774420997.5795164,26
1774420997.590215,26
1774420997.6073172,26
1774420997.6269214,26
1774420997.6436076,25
1774420997.6643095,25
1774420997.6772857,25
1774420997.6905293,25
1774420997.7216802,25
1774420997.723913,27
1774420997.7439115,31
1774420997.758958,35
1774420997.7756906,40
1774420997.7918334,45
1774420997.8078604,51
1774420997.8237815,54
1774420997.841556,57
1774420997.8577878,58
1774420997.8738496,58
1774420997.8981645,57
1774420997.9110029,56
1774420997.9272685,55
1774420997.9440632,53
1774420997.9662662,52
1774420997.9723544,50
1774420997.9942894,48
1774420998.010216,46
1774420998.0276277,44
1774420998.0454254,42
1774420998.0604265,41
1774420998.0757005,40
1774420998.0910141,39
1774420998.1094196,38
1774420998.122442,36
1774420998.1414125,35
1774420998.157506,33
1774420998.1735268,32
1774420998.1892817,31
1774420998.2056515,30
1774420998.2228415,29
1774420998.2401695,29
1774420998.2588065,28
1774420998.2751122,28
1774420998.2935884,28
1774420998.3056467,27
1774420998.3252087,27
1774420998.3424053,27
1774420998.3589084,27
1774420998.3757782,27
1774420998.3944702,27
1774420998.4096308,26
1774420998.4253528,26
1774420998.4436393,26
1774420998.4574463,25
1774420998.4741728,26
1774420998.4897234,27
1774420998.5059178,31
1774420998.5257716,35
1774420998.5422673,40
1774420998.5556154,45
1774420998.5825536,50
1774420998.5923843,54
1774420998.6067333,57
1774420998.625837,58
1774420998.6402938,58
1774420998.6604047,58
1774420998.6791008,57
1774420998.6926794,56
1774420998.7088969,54
1774420998.7256765,52
1774420998.7423284,50
1774420998.7581515,48
1774420998.7762609,46
1774420998.7928715,44
1774420998.8084917,42
1774420998.8288956,41
1774420998.8514078,40
1774420998.8604555,39
1774420998.8763878,38
1774420998.8903613,36
1774420998.9093955,35
1774420998.9232092,33
1774420998.948556,32
1774420998.95554,31
1774420998.981002,30
1774420998.992996,29
1774420999.0074058,28
1774420999.0270483,28
1774420999.042311,27
1774420999.0595,27
1774420999.0724823,27
1774420999.0924401,26
1774420999.1090312,26
1774420999.12392,26
1774420999.1399996,26
1774420999.1560996,26
1774420999.1805587,26
1774420999.1955507,26
1774420999.2081254,25
1774420999.2239542,25
1774420999.2401426,25
1774420999.2588918,25
1774420999.2757995,27
1774420999.2903583,31
1774420999.3093135,36
1774420999.3242788,41
1774420999.3469417,47
1774420999.358928,52
1774420999.3795276,56
1774420999.3905315,58
1774420999.4109938,59
1774420999.4267836,59
1774420999.4429069,59
1774420999.4581747,58
1774420999.47498,57
1774420999.490905,56
1774420999.5088618,54
1774420999.5255477,52
1774420999.5389392,50
1774420999.5629218,48
1774420999.5853875,46
1774420999.5922368,44
1774420999.6090164,42
1774420999.6261387,40
1774420999.6436176,40
1774420999.6580498,38
1774420999.6724536,37
1774420999.689396,36
1774420999.7125669,34
1774420999.7221954,33
1774420999.746485,32
1774420999.7560227,31
1774420999.7785652,30
1774420999.7888377,29
1774420999.8102415,29
1774420999.8323739,28
1774420999.8422232,27
1774420999.8588355,27
1774420999.8755093,27
1774420999.8925312,27
1774420999.906535,26
1774420999.9300401,26
1774420999.9432423,26
1774420999.9631722,26
1774420999.9758122,26
1774420999.9923415,25
1774421000.0102632,25
1774421000.0321121,25
1774421000.042353,25
1774421000.0582674,26
1774421000.0817158,28
1774421000.090335,32
1774421000.114187,38
1774421000.1223638,43
1774421000.145671,49
1774421000.1563332,54
1774421000.1828682,58
1774421000.1944866,60
1774421000.209909,60
1774421000.223168,60
1774421000.2411675,60
1774421000.2567635,59
1774421000.2737627,58
1774421000.2909005,56
1774421000.3085876,55
1774421000.3285162,53
1774421000.3423505,50
1774421000.358068,48
1774421000.3738399,46
1774421000.3921988,45
1774421000.4112065,43
1774421000.426065,42
1774421000.4435132,40
1774421000.4583821,40
1774421000.4737995,38
1774421000.4926035,37
1774421000.5088909,35
1774421000.5257103,34
1774421000.542355,33
1774421000.5559132,32
1774421000.5765662,31
1774421000.5923548,31
1774421000.6075382,30
1774421000.625494,29
1774421000.6421492,29
1774421000.655547,29
1774421000.672507,28
1774421000.6931095,28
1774421000.7090461,28
1774421000.7255614,28
1774421000.7424307,28
1774421000.7626126,27
1774421000.7756956,27
1774421000.7921374,27
1774421000.8089693,26
1774421000.8255565,26
1774421000.8417194,27
1774421000.8584533,29
1774421000.877456,32
1774421000.89068,37
1774421000.9094574,42
1774421000.9226754,48
1774421000.9416313,53
1774421000.9574203,57
1774421000.9721298,59
1774421000.995789,60
1774421001.0057256,60
1774421001.0257695,59
1774421001.0466976,58
1774421001.0589166,57
1774421001.0770357,55
1774421001.0902967,53
1774421001.1092122,51
1774421001.1223428,49
1774421001.1425953,47
1774421001.157087,46
1774421001.1806335,44
1774421001.1974201,43
1774421001.209153,41
1774421001.2245154,40
1774421001.243509,39
1774421001.2616918,38
1774421001.2761629,36
1774421001.292355,35
1774421001.309378,34
1774421001.3254018,32
1774421001.3416018,31
1774421001.359714,30
1774421001.3735037,30
1774421001.3894627,29
1774421001.4089532,29
1774421001.4292452,28
1774421001.4417193,28
1774421001.457265,28
1774421001.4730012,28
1774421001.492214,28
1774421001.5088904,27
1774421001.5261676,27
1774421001.542811,27
1774421001.563452,27
1774421001.5758255,26
1774421001.5929003,26
1774421001.6076114,26
1774421001.6269867,26
1774421001.6442244,28
1774421001.659138,31
1774421001.6769538,36
1774421001.691649,41
1774421001.707695,47
1774421001.7277837,53
1774421001.7400122,57
1774421001.758848,60
1774421001.7767425,61
1774421001.792423,61
1774421001.8088374,61
1774421001.831346,60
1774421001.8432307,59
1774421001.866963,57
1774421001.8758428,55
1774421001.892226,53
1774421001.914301,51
1774421001.9305556,49
1774421001.9437532,47
1774421001.9593256,45
1774421001.9770093,43
1774421001.991705,42
1774421002.0089417,41
1774421002.026786,40
1774421002.0402663,39
1774421002.0570157,37
1774421002.0769064,36
1774421002.089701,34
1774421002.1091075,33
1774421002.1220777,32
1774421002.1387212,31
1774421002.1590335,30
1774421002.1771016,29
1774421002.1924558,28
1774421002.206504,28
1774421002.222477,27
1774421002.241856,27
1774421002.2607403,27
1774421002.2742124,27
1774421002.2922459,26
1774421002.3150163,26
1774421002.330128,26
1774421002.3430102,26
1774421002.3617105,25
1774421002.3755877,25
1774421002.3905547,25
1774421002.4089017,25
1774421002.4257314,27
1774421002.4416595,30
1774421002.4578474,35
1774421002.4758937,40
1774421002.4889443,46
1774421002.509833,52
1774421002.5220315,57
1774421002.540263,60
1774421002.56213,61
1774421002.5720043,62
1774421002.592507,61
1774421002.6070986,60
1774421002.6256711,59
1774421002.6435242,58
1774421002.6633534,56
1774421002.675773,54
1774421002.6953266,52
1774421002.7112799,50
1774421002.7257204,48
1774421002.7435105,46
1774421002.7590866,44
1774421002.775254,43
1774421002.7909417,42
1774421002.8102536,40
1774421002.8272352,39
1774421002.83938,38
1774421002.8554678,36
1774421002.875824,35
1774421002.8927138,34
1774421002.9062383,33
1774421002.9365125,32
1774421002.9413002,31
1774421002.9589972,30
1774421002.9755502,30
1774421002.9922304,29
1774421003.0061076,29
1774421003.0303721,29
1774421003.0423727,29
1774421003.059682,29
1774421003.0757625,29
1774421003.0920231,28
1774421003.1105814,28
1774421003.1311822,28
1774421003.1422846,27
1774421003.1583836,27
1774421003.1743479,27
1774421003.1902833,29
1774421003.2066314,32
1774421003.222523,36
1774421003.2390676,40
1774421003.2589312,46
1774421003.2750611,52
1774421003.2923126,57
1774421003.3062108,60
1774421003.327494,61
1774421003.3389184,61
1774421003.3593843,60
1774421003.3756042,59
1774421003.39238,58
1774421003.4103718,56
1774421003.4314983,54
1774421003.443533,52
1774421003.4608953,50
1774421003.4756567,48
1774421003.4915822,47
1774421003.5078547,45
1774421003.525525,44
1774421003.5411165,43
1774421003.5556426,41
1774421003.576181,40
1774421003.5923545,39
1774421003.6070437,38
1774421003.6270819,36
1774421003.6432774,35
1774421003.6660745,34
1774421003.6732478,32
1774421003.6953633,31
1774421003.7097979,30
1774421003.72624,30
1774421003.738992,29
1774421003.7591903,29
1774421003.7722554,29
1774421003.793128,29
1774421003.8072028,29
1774421003.8234851,28
1774421003.842171,28
1774421003.8563023,28
1774421003.8722715,28
1774421003.8954246,27
1774421003.9066556,27
1774421003.9249208,27
1774421003.9431577,29
1774421003.958846,32
1774421003.9755998,36
1774421003.9924588,41
1774421004.0148654,47
1774421004.02572,53
1774421004.046925,57
1774421004.060174,60
1774421004.076426,61
1774421004.0951862,62
1774421004.1073627,61
1774421004.1252384,60
1774421004.1386006,59
1774421004.1589367,57
1774421004.173651,56
1774421004.1911924,54
1774421004.2052467,51
1774421004.2238238,49
1774421004.2398064,47
1774421004.2592897,45
1774421004.2751002,44
1774421004.2981951,42
1774421004.3089302,41
1774421004.3255947,40
1774421004.3426926,39
1774421004.3593447,37
1774421004.378134,36
1774421004.3922448,34
1774421004.4077997,33
1774421004.4241104,32
1774421004.4394357,31
1774421004.45884,30
1774421004.4729788,29
1774421004.491496,29
1774421004.507023,28
1774421004.5235932,28
1774421004.5396638,28
1774421004.556175,28
1774421004.5718975,28
1774421004.5891154,28
1774421004.6088035,28
1774421004.6256502,27
1774421004.6391845,27
1774421004.6623938,27
1774421004.6783442,27
1774421004.6962326,29
1774421004.710275,33
1774421004.7293465,38
1774421004.743539,43
1774421004.7598624,50
1774421004.7758605,55
1774421004.7921956,59
1774421004.8058696,62
1774421004.8266268,63
1774421004.8397462,63
1774421004.8595464,62
1774421004.8761764,61
1774421004.8925486,60
1774421004.9063778,58
1774421004.933917,56
1774421004.940272,54
1774421004.9596052,52
1774421004.9741654,50
1774421004.9966452,48
1774421005.0102212,46
1774421005.0258934,45
1774421005.0390728,43
1774421005.0589132,42
1774421005.0755544,40
1774421005.0923166,40
1774421005.110312,38
1774421005.1253188,37
1774421005.1411123,35
1774421005.1601284,34
1774421005.1732473,33
1774421005.1891792,32
1774421005.2052588,31
1774421005.2224457,31
1774421005.239189,31
1774421005.2593112,30
1774421005.275999,30
1774421005.2924275,30
1774421005.3065372,30
1774421005.3248136,30
1774421005.3387027,29
1774421005.3590271,29
1774421005.3766506,29
1774421005.3966286,29
1774421005.4114945,30
1774421005.4285924,32
1774421005.4435883,36
1774421005.4606695,40
1774421005.4766586,45
1774421005.4900782,51
1774421005.5086844,56
1774421005.5218582,59
1774421005.540774,61
1774421005.5593188,61
1774421005.571999,61
1774421005.5921571,60
1774421005.6066713,59
1774421005.6220143,57
1774421005.640705,55
1774421005.661604,53
1774421005.679193,51
1774421005.695072,49
1774421005.7073362,47
1774421005.7288988,45
1774421005.7398493,43
1774421005.762085,42
1774421005.7755828,41
1774421005.794351,40
1774421005.8051999,39
1774421005.8243682,37
1774421005.8415847,36
1774421005.8574107,34
1774421005.8755214,33
1774421005.8901503,32
1774421005.9165688,31
1774421005.926911,30
1774421005.9441886,29
1774421005.9589417,29
1774421005.9788318,28
1774421005.992445,28
1774421006.0089278,28
1774421006.0285451,28
1774421006.0421464,27
1774421006.0590918,27
1774421006.0727546,27
1774421006.0941103,26
1774421006.1088781,26
1774421006.1238275,26
1774421006.138459,28
1774421006.1581495,31
1774421006.1718242,35
1774421006.1916342,40
1774421006.2053468,46
1774421006.2250543,51
1774421006.2407167,56
1774421006.2606103,59
1774421006.2760625,60
1774421006.288488,60
1774421006.3069499,60
1774421006.3253899,59
1774421006.342265,58
1774421006.359107,57
1774421006.3800514,55
1774421006.3922575,53
1774421006.411089,51
1774421006.4258652,49
1774421006.4421961,46
1774421006.4567301,44
1774421006.4760468,43
1774421006.4920628,41
1774421006.5070355,40
1774421006.5240402,39
1774421006.5401204,38
1774421006.556192,36
1774421006.5721574,35
1774421006.5921848,34
1774421006.6070266,32
1774421006.6307502,31
1774421006.6422966,30
1774421006.6588707,30
1774421006.6730134,29
1774421006.6907392,29
1774421006.7089005,28
1774421006.7271218,28
1774421006.7463107,28
1774421006.7590933,28
1774421006.778329,28
1774421006.7922163,27
1774421006.8103507,27
1774421006.8255758,27
1774421006.8425503,27
1774421006.8590467,27
1774421006.8745396,28
1774421006.8923373,30
1774421006.9083927,34
1774421006.9278152,40
1774421006.9387379,44
1774421006.9562163,50
1774421006.9725783,55
1774421007.0024343,58
1774421007.010152,60
1774421007.0243723,61
1774421007.0468767,60
1774421007.0630012,60
1774421007.0814266,59
1774421007.0935907,58
1774421007.1079915,56
1774421007.1252012,54
1774421007.146126,52
1774421007.1576307,50
1774421007.1782227,48
1774421007.192445,46
1774421007.2104034,44
1774421007.225443,43
1774421007.239743,41
1774421007.26028,40
1774421007.2746892,39
1774421007.2924585,38
1774421007.3063312,36
1774421007.3243742,35
1774421007.3403676,34
1774421007.3562047,33
1774421007.3721163,32
1774421007.3885057,31
1774421007.4072886,30
1774421007.4257476,30
1774421007.4489825,30
1774421007.4590588,29
1774421007.4783964,29
1774421007.4935756,29
1774421007.506124,29
1774421007.5255935,29
1774421007.5471902,28
1774421007.556265,28
1774421007.5792153,27
1774421007.5951807,27
1774421007.607298,28
1774421007.6262012,31
1774421007.6423557,35
1774421007.6591692,40
1774421007.6741595,45
1774421007.6914747,50
1774421007.7072375,55
