timestamp,bvp
1774420455.6521952,73
1774420455.668945,71
1774420455.6855834,68
1774420455.7021956,66
1774420455.718928,64
1774420455.7355855,61
1774420455.7522268,58
1774420455.768955,55
1774420455.7855456,52
1774420455.8024755,50
1774420455.8189561,48
1774420455.8355477,47
1774420455.8522267,46
1774420455.8689437,45
1774420455.8855205,44
1774420455.903218,42
1774420455.9243884,40
1774420455.9376264,38
1774420455.9533882,35
1774420455.9695437,33
1774420455.9865506,31
1774420456.0023093,28
1774420456.0199718,26
1774420456.0361943,24
1774420456.0524976,23
1774420456.0693178,21
1774420456.0931954,20
1774420456.1094694,19
1774420456.1202729,17
1774420456.1363003,16
1774420456.153227,15
1774420456.174256,14
1774420456.1874676,13
1774420456.2026346,13
1774420456.220219,15
1774420456.2356708,21
1774420456.252957,29
1774420456.2693846,40
1774420456.2861924,50
1774420456.3027196,62
1774420456.3190832,70
1774420456.336284,75
1774420456.3529813,75
1774420456.3696468,74
1774420456.3857253,71
1774420456.4026258,67
1774420456.4208667,64
1774420456.4363573,61
1774420456.454499,59
1774420456.4725604,56
1774420456.49115,54
1774420456.5058506,51
1774420456.5200355,48
1774420456.5429397,47
1774420456.5547712,46
1774420456.5723765,45
1774420456.588287,45
1774420456.6028519,45
1774420456.6197722,44
1774420456.6364517,42
1774420456.6524358,40
1774420456.670226,39
1774420456.6859133,36
1774420456.7026212,33
1774420456.7199345,30
1774420456.7363203,29
1774420456.752455,27
1774420456.7692442,25
1774420456.78573,22
1774420456.802288,21
1774420456.8211415,19
1774420456.8370538,16
1774420456.8537068,15
1774420456.8696802,14
1774420456.8866503,13
1774420456.9026666,12
1774420456.9227147,10
1774420456.9360404,9
1774420456.9522,7
1774420456.9695034,7
1774420456.9860168,8
1774420457.0027866,13
1774420457.020914,21
1774420457.0361602,32
1774420457.0531855,43
1774420457.0693166,54
1774420457.0866802,64
1774420457.10235,69
1774420457.119906,70
1774420457.1360645,69
1774420457.1530976,65
1774420457.1689897,61
1774420457.1865602,58
1774420457.2021396,55
1774420457.2193506,54
1774420457.2361805,53
1774420457.2525704,51
1774420457.2691092,50
1774420457.2862337,48
1774420457.3025026,46
1774420457.320122,44
1774420457.3357975,43
1774420457.3528657,43
1774420457.369474,42
1774420457.386652,42
1774420457.4030879,41
1774420457.4192708,40
1774420457.4359214,37
1774420457.4527836,35
1774420457.4692883,32
1774420457.4897182,30
1774420457.5030754,28
1774420457.5195153,26
1774420457.5375488,24
1774420457.5531194,23
1774420457.569196,21
1774420457.5857482,20
1774420457.6022074,19
1774420457.619412,18
1774420457.6359205,17
1774420457.6530228,16
1774420457.671776,15
1774420457.6872244,13
1774420457.7066839,14
1774420457.7209923,17
1774420457.7374284,22
1774420457.752588,29
1774420457.7697058,39
1774420457.7885633,48
1774420457.803514,57
1774420457.8198116,63
1774420457.8363461,66
1774420457.8602133,66
1774420457.87697,63
1774420457.8933125,60
1774420457.9051368,56
1774420457.9220417,53
1774420457.9359605,50
1774420457.953204,48
1774420457.9703174,46
1774420457.9861522,44
1774420458.0023985,42
1774420458.0203533,41
1774420458.038933,40
1774420458.0521317,40
1774420458.070841,40
1774420458.0873218,40
1774420458.1047058,38
1774420458.1203187,38
1774420458.135882,36
1774420458.152292,34
1774420458.1696982,32
1774420458.1902676,30
1774420458.2081616,27
1774420458.2249413,25
1774420458.2391908,22
1774420458.2559333,21
1774420458.273821,19
1774420458.288007,18
1774420458.3046076,18
1774420458.3262799,17
1774420458.3403604,16
1774420458.3582313,14
1774420458.3702052,14
1774420458.3905406,13
1774420458.40356,12
1774420458.4187908,13
1774420458.438587,18
1774420458.4543648,26
1774420458.4701564,36
1774420458.4922183,46
1774420458.5034266,56
1774420458.5214448,64
1774420458.5365717,69
1774420458.552803,69
1774420458.573311,67
1774420458.5862255,64
1774420458.6026826,60
1774420458.6192296,57
1774420458.6379688,55
1774420458.6573856,52
1774420458.6731925,50
1774420458.6862595,47
1774420458.703065,45
1774420458.7251894,44
1774420458.7389832,42
1774420458.7559626,41
1774420458.770161,41
1774420458.7858675,40
1774420458.8076403,40
1774420458.8187711,40
1774420458.8357105,39
1774420458.8546288,37
1774420458.875551,35
1774420458.8859577,32
1774420458.9073048,30
1774420458.9272835,27
1774420458.9373744,25
1774420458.9612548,23
1774420458.9772384,21
1774420458.9878132,20
1774420459.0089386,19
1774420459.0193727,18
1774420459.0415945,17
1774420459.0526593,16
1774420459.0696023,15
1774420459.0925357,14
1774420459.104301,13
1774420459.119412,12
1774420459.135839,12
1774420459.15258,15
1774420459.1695924,22
1774420459.1860306,31
1774420459.2044575,41
1774420459.2186964,52
1774420459.2365725,62
1774420459.252598,69
1774420459.2719324,72
1774420459.285814,71
1774420459.3027494,68
1774420459.318835,65
1774420459.3356335,62
1774420459.3528838,60
1774420459.3697343,57
1774420459.3854244,55
1774420459.4054642,53
1774420459.4198577,52
1774420459.437223,50
1774420459.4558098,47
1774420459.4690268,45
1774420459.487427,44
1774420459.5029058,43
1774420459.5226233,42
1774420459.5373344,41
1774420459.554572,40
1774420459.5704837,39
1774420459.5856497,37
1774420459.6028178,35
1774420459.6187372,33
1774420459.6432796,30
1774420459.6533067,28
1774420459.674567,25
1774420459.6874301,23
1774420459.7059019,22
1774420459.721584,20
1774420459.737486,19
1774420459.7561803,19
1774420459.7765791,18
1774420459.787349,17
1774420459.8048599,16
1774420459.818755,16
1774420459.8355405,15
1774420459.8532546,14
1774420459.8703818,13
1774420459.8893614,14
1774420459.9028294,16
1774420459.9215574,23
1774420459.936783,32
1774420459.9529073,42
1774420459.9690604,53
1774420459.9857447,62
1774420460.0110738,69
1774420460.0186949,71
1774420460.037201,71
1774420460.0565882,68
1774420460.076232,65
1774420460.088901,61
1774420460.1062121,58
1774420460.1205077,56
1774420460.1356401,54
1774420460.1536512,52
1774420460.1732416,51
1774420460.1934853,49
1774420460.2057571,47
1774420460.2207487,45
1774420460.2381468,44
1774420460.256779,44
1774420460.2724164,43
1774420460.2874463,43
1774420460.303384,42
1774420460.3204098,41
1774420460.34345,40
1774420460.354134,38
1774420460.3767323,36
1774420460.3857746,34
1774420460.406894,32
1774420460.4187863,29
1774420460.4410775,27
1774420460.4599373,25
1774420460.4702497,23
1774420460.492117,22
1774420460.5083017,21
1774420460.5266254,20
1774420460.5370026,19
1774420460.5527534,18
1774420460.569244,17
1774420460.58822,15
1774420460.6048486,14
1774420460.6204624,14
1774420460.636376,13
1774420460.6602437,12
1774420460.66962,13
1774420460.6896598,17
1774420460.7049403,24
1774420460.722044,33
1774420460.7369518,43
1774420460.7538981,54
1774420460.7689505,62
1774420460.7854354,68
1774420460.8081455,69
1774420460.8197296,67
1774420460.838239,64
1774420460.8520494,61
1774420460.873376,58
1774420460.8902094,56
1774420460.9098802,54
1774420460.9223576,52
1774420460.938256,49
1774420460.957494,47
1774420460.9694772,46
1774420460.9855022,44
1774420461.0064151,43
1774420461.0214987,43
1774420461.040458,43
1774420461.0593824,42
1774420461.0687647,42
1774420461.0888617,40
1774420461.103051,40
1774420461.1193035,37
1774420461.1356056,35
1774420461.1522636,33
1774420461.1751976,30
1774420461.1889162,28
1774420461.2094724,26
1774420461.2186935,25
1774420461.241443,23
1774420461.2529225,22
1774420461.2766154,21
1774420461.2880087,21
1774420461.305415,20
1774420461.3204656,19
1774420461.335395,18
1774420461.3561873,17
1774420461.370635,17
1774420461.394576,16
1774420461.4049141,15
1774420461.4198117,14
1774420461.4399695,13
1774420461.457092,12
1774420461.4707668,12
1774420461.4911194,13
1774420461.5099337,17
1774420461.519839,24
1774420461.5358648,34
1774420461.5538328,44
1774420461.575207,54
1774420461.5858068,62
1774420461.6060948,67
1774420461.6211154,67
1774420461.6357164,65
1774420461.6555305,61
1774420461.671419,58
1774420461.687335,55
1774420461.7024689,52
1774420461.7201529,50
1774420461.737404,48
1774420461.7556157,47
1774420461.77271,45
1774420461.7917826,43
1774420461.809188,42
1774420461.8260982,41
1774420461.8399596,40
1774420461.8625815,40
1774420461.8763084,40
1774420461.8927343,39
1774420461.9088387,37
1774420461.9200885,35
1774420461.938297,33
1774420461.9529953,30
1774420461.9689012,28
1774420461.9867983,25
1774420462.007409,24
1774420462.0187645,21
1774420462.0382662,20
1774420462.0555725,18
1774420462.0701435,17
1774420462.090199,16
1774420462.1054416,15
1774420462.119086,14
1774420462.1360683,14
1774420462.1533535,13
1774420462.1767805,12
1774420462.1887653,12
1774420462.2099683,12
1774420462.2261326,11
1774420462.2390902,10
1774420462.2532482,10
1774420462.2736986,9
1774420462.2862365,8
1774420462.3025174,9
1774420462.3245044,9
1774420462.339238,13
1774420462.3553398,21
1774420462.371281,31
1774420462.386369,40
1774420462.4098952,51
1774420462.4185152,60
1774420462.4431808,65
1774420462.459864,66
1774420462.4743025,64
1774420462.487128,61
1774420462.5101328,57
1774420462.524736,54
1774420462.536145,51
1774420462.5606847,50
1774420462.576737,48
1774420462.5876656,46
1774420462.6094759,44
1774420462.623569,43
1774420462.637828,41
1774420462.6561577,40
1774420462.6729043,39
1774420462.6873982,38
1774420462.7052512,37
1774420462.7213306,36
1774420462.739857,35
1774420462.7534122,34
1774420462.7688708,32
1774420462.7893074,30
1774420462.8037133,29
1774420462.8185177,26
1774420462.8380907,24
1774420462.8595512,22
1774420462.8691394,20
1774420462.8931131,19
1774420462.9040031,18
1774420462.9198925,17
1774420462.938405,16
1774420462.9533658,15
1774420462.9716883,14
1774420462.9889019,14
1774420463.0077853,14
1774420463.0216444,13
1774420463.039768,13
1774420463.0553422,13
1774420463.070576,12
1774420463.0863428,11
1774420463.1021798,10
1774420463.1186368,9
1774420463.136954,8
1774420463.1530066,8
1774420463.171543,9
1774420463.1868293,13
1774420463.2074084,20
1774420463.2216475,30
1774420463.2387915,40
1774420463.2520711,51
1774420463.2724307,59
1774420463.2853055,64
1774420463.3079238,66
1774420463.3235073,65
1774420463.3399372,61
1774420463.3596494,57
1774420463.3724165,54
1774420463.3872974,52
1774420463.407407,49
1774420463.4264503,48
1774420463.441029,46
1774420463.4522035,45
1774420463.4705105,43
1774420463.485399,42
1774420463.5025642,41
1774420463.5219429,40
1774420463.540775,40
1774420463.5539064,40
1774420463.5755,39
1774420463.5858629,38
1774420463.6070833,37
1774420463.618446,35
1774420463.6364956,33
1774420463.6533034,31
1774420463.6715817,29
1774420463.6932244,27
1774420463.7073529,25
1774420463.7282643,24
1774420463.7357886,22
1774420463.760143,20
1774420463.7705057,18
1774420463.786282,18
1774420463.8024547,17
1774420463.8204956,16
1774420463.842324,15
1774420463.8537636,14
1774420463.8693624,14
1774420463.8866959,13
1774420463.9046445,12
1774420463.9217448,11
1774420463.9411943,11
1774420463.955116,10
1774420463.973202,10
1774420463.9860544,9
1774420464.0053813,8
1774420464.0203624,8
1774420464.036197,10
1774420464.0523915,14
1774420464.0697796,22
1774420464.0907073,32
1774420464.1042244,42
1774420464.120193,52
1774420464.135439,60
1774420464.1522036,64
1774420464.1753862,64
1774420464.185811,61
1774420464.2100358,58
1774420464.2237513,55
1774420464.2419603,51
1774420464.2553327,49
1774420464.276145,47
1774420464.28983,45
1774420464.3053205,44
1774420464.3226085,42
1774420464.3391159,41
1774420464.355042,41
1774420464.3719478,40
1774420464.3864424,40
1774420464.405885,40
1774420464.4184427,40
1774420464.4422126,40
1774420464.451734,39
1774420464.477152,37
1774420464.4870198,35
1774420464.5066667,33
1774420464.5291958,30
1774420464.5358605,28
1774420464.552057,26
1774420464.5748215,25
1774420464.5949821,23
1774420464.6099226,22
1774420464.626539,21
1774420464.642889,19
1774420464.6557946,19
1774420464.6752,19
1774420464.6871083,18
1774420464.7070148,18
1774420464.7215664,17
1774420464.7392168,16
1774420464.7542534,15
1774420464.7701125,14
1774420464.7861505,14
1774420464.8021684,14
1774420464.8184018,15
1774420464.8371994,19
1774420464.8650415,26
1774420464.8701205,35
1774420464.8900828,44
1774420464.9035332,54
1774420464.920913,62
1774420464.9363492,66
1774420464.956974,66
1774420464.974873,64
1774420464.9935195,61
1774420465.0090675,58
1774420465.0228631,54
1774420465.0411108,52
1774420465.0571702,50
1774420465.0721128,48
1774420465.0853207,46
1774420465.1043348,45
1774420465.120265,43
1774420465.135457,42
1774420465.1525521,42
1774420465.1765733,42
1774420465.1888745,42
1774420465.2098844,42
1774420465.2215798,42
1774420465.2423463,41
1774420465.2621763,40
1774420465.273929,38
1774420465.2885733,35
1774420465.3049982,33
1774420465.3265123,30
1774420465.3382444,28
1774420465.355019,26
1774420465.37408,25
1774420465.3877282,24
1774420465.406322,23
1774420465.4203382,22
1774420465.4416559,21
1774420465.45569,21
1774420465.468612,19
1774420465.489849,19
1774420465.5028408,18
1774420465.5203235,18
1774420465.5432513,17
1774420465.5540328,17
1774420465.569657,18
1774420465.5850182,21
1774420465.6125405,27
1774420465.6240282,36
1774420465.6407197,45
1774420465.6521754,55
1774420465.668329,63
1774420465.6859567,68
1774420465.7022197,69
1774420465.722462,68
1774420465.7432594,65
1774420465.7575197,61
1774420465.7685554,58
1774420465.7925248,55
1774420465.8021762,53
1774420465.8189096,51
1774420465.835413,49
1774420465.8535454,47
1774420465.872281,46
1774420465.8865864,44
1774420465.9060817,43
1774420465.9201155,42
1774420465.9426603,42
1774420465.9545124,41
1774420465.969297,41
1774420465.988146,41
1774420466.0019383,40
1774420466.0214233,38
1774420466.0349762,36
1774420466.0532756,34
1774420466.0708225,32
1774420466.088386,30
1774420466.1019366,28
1774420466.1210232,27
1774420466.1354108,26
1774420466.1519465,24
1774420466.172284,23
1774420466.1865227,22
1774420466.204075,22
1774420466.2249508,22
1774420466.2408652,21
1774420466.2531562,20
1774420466.2699082,19
1774420466.29014,18
1774420466.3027465,17
1774420466.3201969,16
1774420466.3366518,15
1774420466.361041,14
1774420466.3695872,15
1774420466.3873065,20
1774420466.403273,28
1774420466.420091,38
1774420466.4364529,48
1774420466.454441,60
1774420466.4699323,68
1774420466.4890254,73
1774420466.501629,74
1774420466.5195568,72
1774420466.5370839,69
1774420466.5530832,65
1774420466.5693028,62
1774420466.5866573,59
1774420466.6046066,57
1774420466.6226506,55
1774420466.6390753,53
1774420466.6568513,51
1774420466.671326,50
1774420466.6901097,48
1774420466.7089787,47
1774420466.720369,46
1774420466.7432919,45
1774420466.759955,44
1774420466.7695239,43
1774420466.7855675,42
1774420466.8039956,40
1774420466.8189979,40
1774420466.8349276,37
1774420466.8556042,35
1774420466.8761437,32
1774420466.8881643,30
1774420466.9023643,28
1774420466.9196215,26
1774420466.936053,25
1774420466.9517515,23
1774420466.9728045,22
1774420466.9857094,21
1774420467.009953,21
1774420467.0238147,20
1774420467.0432587,20
1774420467.0578055,19
1774420467.0697658,18
1774420467.0864408,17
1774420467.1046474,16
1774420467.1188571,14
1774420467.1353676,13
1774420467.1525223,12
1774420467.1699092,11
1774420467.1923602,11
1774420467.2037184,12
1774420467.2183492,16
1774420467.234999,23
1774420467.255324,32
1774420467.2712257,43
1774420467.2875597,54
1774420467.303614,65
1774420467.3212564,71
1774420467.3356895,73
1774420467.3541455,73
1774420467.3784287,70
1774420467.387941,67
1774420467.4020119,63
1774420467.4208877,61
1774420467.4372857,60
1774420467.4576943,59
1774420467.472896,57
1774420467.4900503,56
1774420467.5093486,54
1774420467.5256877,52
1774420467.5396233,50
1774420467.5528681,49
1774420467.5698626,48
1774420467.588585,47
1774420467.6059318,46
1774420467.6211927,45
1774420467.6357474,44
1774420467.6519094,42
1774420467.668255,40
1774420467.685902,39
1774420467.7016141,37
1774420467.7268639,35
1774420467.7434926,33
1774420467.7581272,31
1774420467.771998,30
1774420467.7919388,28
1774420467.803142,26
1774420467.8257585,26
1774420467.8412807,25
1774420467.851873,24
1774420467.8708127,23
1774420467.888126,22
1774420467.9037168,21
1774420467.9214408,19
1774420467.9381027,18
1774420467.9537804,16
1774420467.9698455,15
1774420467.9859188,14
1774420468.001856,13
1774420468.0188096,13
1774420468.034908,14
1774420468.0515816,17
1774420468.0724022,24
1774420468.0936503,34
1774420468.1099486,44
1774420468.1187406,55
1774420468.1366203,65
1774420468.1527977,71
1774420468.1702573,74
1774420468.1886284,73
1774420468.2058003,70
1774420468.2240999,66
1774420468.2414916,63
1774420468.253622,61
1774420468.2715313,59
1774420468.2875342,57
1774420468.303603,56
1774420468.3186045,54
1774420468.3349304,52
1774420468.3618426,50
1774420468.3695903,49
1774420468.391078,48
1774420468.4061742,48
1774420468.4191873,47
1774420468.4407005,47
1774420468.4539304,46
1774420468.4681835,45
1774420468.4910686,43
1774420468.5100076,41
1774420468.5264142,39
1774420468.5352428,37
1774420468.5574777,34
1774420468.5703104,32
1774420468.5894604,30
1774420468.605581,28
1774420468.6201272,26
1774420468.6356125,25
1774420468.65305,23
1774420468.6722062,22
1774420468.688832,21
1774420468.7057614,20
1774420468.731352,18
1774420468.7358508,17
1774420468.760161,16
1774420468.7717626,15
1774420468.7918563,14
1774420468.8020234,13
1774420468.818471,12
1774420468.8349152,11
1774420468.8542676,11
1774420468.8690147,13
1774420468.8861754,18
1774420468.9068017,26
1774420468.9229457,37
1774420468.9389822,48
1774420468.9565856,60
1774420468.970763,69
1774420468.9907315,75
1774420469.0029078,77
1774420469.0219598,75
1774420469.0434031,73
1774420469.0581906,69
1774420469.0756683,66
1774420469.0903783,64
1774420469.1058009,62
1774420469.1186588,61
1774420469.1360774,59
1774420469.152176,58
1774420469.1683471,56
1774420469.1872213,55
1774420469.201947,54
1774420469.2193098,53
1774420469.2348003,52
1774420469.2536988,52
1774420469.2692747,52
1774420469.2882953,51
1774420469.302752,50
1774420469.3184261,47
1774420469.3381932,45
1774420469.3538117,43
1774420469.3682234,41
1774420469.3894231,39
1774420469.410452,37
1774420469.4267216,35
1774420469.4382367,34
1774420469.457625,32
1774420469.4742517,31
1774420469.4931254,30
1774420469.5054162,29
1774420469.52175,28
1774420469.5369523,27
1774420469.561609,26
1774420469.5729666,25
1774420469.5875502,24
1774420469.6048965,23
1774420469.6235635,22
1774420469.6347697,23
1774420469.6539361,25
1774420469.668763,31
1774420469.6868248,39
1774420469.7019444,48
1774420469.7195253,58
1774420469.7381048,67
1774420469.7529078,73
1774420469.7700803,75
1774420469.7860303,74
1774420469.801594,70
1774420469.8235693,67
1774420469.842746,64
1774420469.855853,61
1774420469.8741722,59
1774420469.8881605,57
1774420469.9058514,55
1774420469.9208179,53
1774420469.9368303,51
1774420469.953279,50
1774420469.9724495,49
1774420469.9891694,49
1774420470.0025525,49
1774420470.0251458,48
1774420470.0347683,47
1774420470.0548916,46
1774420470.0705664,44
1774420470.0848758,41
1774420470.109942,40
1774420470.1183383,37
1774420470.1353204,34
1774420470.1522355,31
1774420470.1720982,29
1774420470.1924407,27
1774420470.2019577,25
1774420470.2210653,25
1774420470.2421932,24
1774420470.2585971,23
1774420470.2728448,23
1774420470.291221,22
1774420470.3066447,21
1774420470.3272932,21
1774420470.3377075,19
1774420470.352927,19
1774420470.3688645,18
1774420470.3848593,17
1774420470.401901,18
1774420470.4224515,19
1774420470.4400046,23
1774420470.45834,31
1774420470.4685173,40
1774420470.4857218,51
1774420470.5099561,61
1774420470.5265884,69
1774420470.5432413,74
1774420470.5573285,76
1774420470.5761442,75
1774420470.5871727,72
1774420470.6055598,69
1774420470.6233668,66
1774420470.6356819,64
1774420470.6518815,63
1774420470.6710336,62
1774420470.6865046,60
1774420470.7030237,59
1774420470.7190852,56
1774420470.7382686,54
1774420470.7649267,52
1774420470.7686996,51
1774420470.7860503,50
1774420470.80177,49
1774420470.8266752,48
1774420470.8377464,47
1774420470.8599222,45
1774420470.8781214,43
1774420470.8920588,41
1774420470.9046803,39
1774420470.9243913,37
1774420470.9396634,35
1774420470.955505,33
1774420470.9704924,32
1774420470.987536,30
1774420471.00359,28
1774420471.019695,26
1774420471.0359702,25
1774420471.051785,24
1774420471.0733378,23
1774420471.0932188,22
1774420471.109086,22
1774420471.120519,21
1774420471.137425,19
1774420471.159542,18
1774420471.1703463,17
1774420471.193779,16
1774420471.2017758,15
1774420471.2194197,15
1774420471.2347984,17
1774420471.2591248,21
1774420471.2769847,29
1774420471.2847073,39
1774420471.3070707,49
1774420471.3184164,59
1774420471.339082,68
1774420471.3549964,72
1774420471.3772004,74
1774420471.3861818,73
1774420471.4014385,71
1774420471.424223,68
1774420471.4472103,65
1774420471.460885,64
1774420471.4727497,63
1774420471.4954822,61
1774420471.505936,60
1774420471.5285358,58
1774420471.5377913,56
1774420471.5599544,54
1774420471.576773,52
1774420471.5921583,50
1774420471.6016948,49
1774420471.6246321,48
1774420471.635664,48
1774420471.6599407,46
1774420471.6726174,45
1774420471.688598,43
1774420471.7048335,40
1774420471.7206707,38
1774420471.7363887,36
1774420471.7516048,33
1774420471.7776492,31
1774420471.7866352,29
1774420471.8059351,27
1774420471.8193436,25
1774420471.8353677,24
1774420471.8589778,23
1774420471.8691761,22
1774420471.8933184,21
1774420471.908068,20
1774420471.9244192,19
1774420471.9351373,19
1774420471.9580884,18
1774420471.9730785,17
1774420471.9901013,16
1774420472.0018454,15
1774420472.0188372,14
1774420472.0363626,13
1774420472.0533152,15
1774420472.0749831,18
1774420472.089394,25
1774420472.1093967,34
1774420472.121221,43
1774420472.1354883,53
1774420472.1528919,62
1774420472.174454,68
1774420472.18861,70
1774420472.2017505,68
1774420472.226635,65
1774420472.2432644,62
1774420472.2532635,59
1774420472.2744963,57
1774420472.2916403,55
1774420472.3029287,54
1774420472.3208287,52
1774420472.3359013,50
1774420472.355604,48
1774420472.371816,46
1774420472.3901317,45
1774420472.4018996,44
1774420472.4213934,43
1774420472.4348567,43
1774420472.453088,42
1774420472.4816365,41
1774420472.4932134,40
1774420472.5137348,39
1774420472.5266862,36
1774420472.5434391,34
1774420472.5553105,32
1774420472.5767493,30
1774420472.5932698,28
1774420472.609026,27
1774420472.6238105,26
1774420472.6420043,25
1774420472.6577897,23
1774420472.6739485,23
1774420472.689709,22
1774420472.7061667,22
1774420472.7217476,21
1774420472.7360241,20
1774420472.7562268,20
1774420472.7711701,19
1774420472.793469,19
1774420472.804605,18
1774420472.8180096,17
1774420472.8380868,16
1774420472.8532448,16
1774420472.8765848,18
1774420472.8905416,23
1774420472.9101129,31
1774420472.9284806,40
1774420472.939242,49
1774420472.9584253,58
1774420472.968837,65
1774420472.9886806,68
1774420473.0028703,69
1774420473.0193412,66
1774420473.0357442,63
1774420473.054645,60
1774420473.0690358,57
1774420473.0864801,56
1774420473.1026037,54
1774420473.1189578,52
1774420473.134947,51
1774420473.1519356,49
1774420473.1696486,48
1774420473.1851404,46
1774420473.2101204,46
1774420473.2183523,46
1774420473.238678,46
1774420473.2546628,46
1774420473.2742784,45
1774420473.2925491,44
1774420473.3103554,42
1774420473.3243127,40
1774420473.3404,37
1774420473.3524096,35
1774420473.3726418,32
1774420473.3925016,30
1774420473.4042344,28
1774420473.427765,26
1774420473.4358861,25
1774420473.4523957,23
1774420473.4682307,22
1774420473.4890232,22
1774420473.5054767,21
1774420473.5254583,20
1774420473.537787,19
1774420473.5596974,19
1774420473.5754068,18
1774420473.5880337,17
1774420473.6012998,16
1774420473.6184356,17
1774420473.639141,20
1774420473.6530025,25
1774420473.6711726,32
1774420473.6951404,41
1774420473.707336,51
1774420473.7239387,59
1774420473.7403398,65
1774420473.7565315,67
1774420473.7750387,67
1774420473.7900465,65
1774420473.8021507,61
1774420473.826232,58
1774420473.8355684,56
1774420473.8611386,55
1774420473.8711777,54
1774420473.8931677,52
1774420473.9084375,51
1774420473.9254558,49
1774420473.9404833,47
1774420473.952788,45
1774420473.969073,44
1774420473.9924848,43
1774420474.0087576,43
1774420474.0239546,42
1774420474.0404239,41
1774420474.0529962,40
1774420474.068035,38
1774420474.0845263,36
1774420474.1012597,34
1774420474.120228,32
1774420474.1354783,30
1774420474.153269,28
1774420474.1737266,26
1774420474.1872602,24
1774420474.2045486,23
1774420474.2242773,21
1774420474.2415798,20
1774420474.256089,19
1774420474.2680185,19
1774420474.2872746,18
1774420474.3020475,17
1774420474.3224034,16
1774420474.337947,15
1774420474.354538,14
1774420474.374752,13
1774420474.385813,11
1774420474.401618,10
1774420474.418252,10
1774420474.438708,10
1774420474.4511838,14
1774420474.470901,20
1774420474.48975,30
1774420474.5078688,40
1774420474.5266337,51
1774420474.5363882,60
1774420474.5531175,66
1774420474.5725462,68
1774420474.5887048,67
1774420474.6059728,65
1774420474.6249523,62
1774420474.6433752,60
1774420474.659942,58
1774420474.6761127,57
1774420474.6919305,56
1774420474.7079139,54
1774420474.7239697,52
1774420474.7387776,51
1774420474.7516158,48
1774420474.770898,46
1774420474.786992,44
1774420474.8051898,42
1774420474.81886,41
1774420474.8355286,40
1774420474.8528554,40
1774420474.8710935,39
1774420474.8862567,37
1774420474.908872,35
1774420474.9272134,33
1774420474.937923,30
1774420474.9560869,28
1774420474.9684503,26
1774420474.9882374,24
1774420475.008953,22
1774420475.0249586,21
1774420475.040895,20
1774420475.057011,19
1774420475.0722072,18
1774420475.0882676,17
1774420475.10387,16
1774420475.1201031,15
1774420475.1358445,14
1774420475.1515403,13
1774420475.169492,12
1774420475.1880355,12
1774420475.2025616,11
1774420475.2178802,10
1774420475.2363575,9
1774420475.2511349,9
1774420475.276671,8
1774420475.2899723,9
1774420475.3052676,13
1774420475.3242633,20
1774420475.3395636,30
1774420475.3538773,40
1774420475.3679087,51
1774420475.3882365,61
1774420475.4040234,67
1774420475.4230008,69
1774420475.439947,68
1774420475.454808,66
1774420475.4698799,62
1774420475.4856098,60
1774420475.5091648,57
1774420475.5214915,56
1774420475.5408974,55
1774420475.553752,53
1774420475.5734842,52
1774420475.5858293,50
1774420475.609919,48
1774420475.6197233,46
1774420475.6412883,45
1774420475.6529868,43
1774420475.6754806,42
1774420475.6917021,42
1774420475.7072604,41
1774420475.7198534,40
1774420475.7393134,38
1774420475.7553973,36
1774420475.7709196,33
1774420475.7868488,31
1774420475.8117294,29
1774420475.8259437,26
1774420475.841734,24
1774420475.8598187,23
1774420475.8730996,21
1774420475.889923,20
1774420475.906947,19
1774420475.9187863,19
1774420475.943438,18
1774420475.9540107,16
1774420475.9703977,15
1774420475.9849477,15
1774420476.0078552,14
1774420476.0188963,13
1774420476.0398057,12
1774420476.0514395,11
1774420476.074392,10
1774420476.0844247,9
1774420476.1028383,9
1774420476.1185198,8
1774420476.1348708,8
1774420476.151465,10
1774420476.1716533,15
1774420476.1879196,23
1774420476.2077634,33
1774420476.226485,43
1774420476.2427065,53
1774420476.258118,61
1774420476.2719579,66
1774420476.2948399,66
1774420476.3029346,64
1774420476.3208463,61
1774420476.3377383,57
1774420476.351332,54
1774420476.3743289,52
1774420476.3860228,50
1774420476.4062557,48
1774420476.4179513,47
1774420476.4380503,46
1774420476.4534447,44
1774420476.469553,42
1774420476.485032,41
1774420476.5044503,40
1774420476.5235095,39
1774420476.538693,39
1774420476.5590022,38
1774420476.5767577,37
1774420476.5934627,36
1774420476.610164,34
1774420476.6184893,32
1774420476.6434767,29
1774420476.6592665,27
1774420476.6757777,25
1774420476.68915,23
1774420476.7093782,21
1774420476.7218583,20
1774420476.7413006,19
1774420476.7537982,19
1774420476.773473,18
1774420476.786215,17
1774420476.8053124,16
1774420476.817802,16
1774420476.8375907,15
1774420476.8577268,14
1774420476.8691025,14
1774420476.8927522,13
1774420476.9018505,12
1774420476.928604,11
1774420476.9472017,10
1774420476.9598818,9
1774420476.9726355,8
1774420476.993377,8
1774420477.0046058,9
1774420477.0236475,12
1774420477.0433989,19
1774420477.056985,28
1774420477.068217,38
1774420477.089866,48
1774420477.1066735,57
1774420477.1188207,63
1774420477.1355824,66
1774420477.1540372,65
1774420477.1728504,63
1774420477.1861708,59
1774420477.204306,56
1774420477.217796,53
1774420477.2397883,52
1774420477.2524316,50
1774420477.268529,48
1774420477.2846549,46
1774420477.3010993,45
1774420477.3266332,43
1774420477.3363185,42
1774420477.3521924,41
1774420477.3690083,40
1774420477.3877933,40
1774420477.4027252,39
1774420477.4196777,38
1774420477.43758,36
1774420477.4583611,35
1774420477.469764,33
1774420477.4899747,31
1774420477.5080025,29
1774420477.5238395,27
1774420477.5399196,26
1774420477.5541015,24
1774420477.5719707,23
1774420477.5858166,21
1774420477.6030073,19
1774420477.6179318,18
1774420477.635292,17
1774420477.6548533,16
1774420477.6806023,16
1774420477.6843777,15
1774420477.710071,15
1774420477.7293756,14
1774420477.7415197,14
1774420477.761371,13
1774420477.7715578,12
1774420477.7936354,11
1774420477.8095489,10
1774420477.818777,10
1774420477.8360903,9
1774420477.8550715,9
1774420477.8704064,11
1774420477.8894954,16
1774420477.9059143,24
1774420477.921665,33
1774420477.936549,42
1774420477.9523137,52
1774420477.969512,59
1774420477.984847,63
1774420478.002619,64
1774420478.0188255,62
1774420478.0445318,58
1774420478.0510256,55
1774420478.0706391,51
1774420478.0856652,49
1774420478.1028128,47
1774420478.1190689,46
1774420478.135711,46
1774420478.1528325,45
1774420478.1695442,44
1774420478.185457,43
1774420478.2060566,42
1774420478.2183862,42
1774420478.2411826,42
1774420478.2539876,42
1774420478.2761073,41
1774420478.286,40
1774420478.3020256,39
1774420478.318084,37
1774420478.3408759,35
1774420478.3537455,33
1774420478.373691,31
1774420478.3850162,29
1774420478.4099486,27
1774420478.4183927,26
1774420478.4413936,25
1774420478.4512742,24
1774420478.470216,24
1774420478.4875758,23
1774420478.5015755,23
1774420478.5189147,23
1774420478.5432627,23
1774420478.5580862,22
1774420478.576545,22
1774420478.589987,21
1774420478.6059759,21
1774420478.6211038,20
1774420478.6383107,19
1774420478.6539397,18
1774420478.6701033,17
1774420478.6904395,18
1774420478.7021222,21
1774420478.721712,28
1774420478.7402167,36
1774420478.7597616,45
1774420478.774151,55
1774420478.7857864,63
1774420478.8037689,68
1774420478.817996,69
1774420478.8431957,67
1774420478.8510284,64
1774420478.8760445,60
1774420478.888569,57
1774420478.9078536,55
1774420478.9238627,52
1774420478.9363043,51
1774420478.955882,49
1774420478.972222,47
1774420478.9879723,47
1774420479.0041723,46
1774420479.0189779,46
1774420479.0357144,46
1774420479.0540342,47
1774420479.0678313,47
1774420479.0915284,46
1774420479.1155562,46
1774420479.1209786,45
1774420479.1359322,43
1774420479.152676,41
1774420479.1731617,39
1774420479.191398,36
1774420479.2016559,33
1774420479.2177951,30
1774420479.2416909,28
1774420479.2581549,26
1774420479.2677505,26
1774420479.290353,25
1774420479.3066986,24
1774420479.33055,23
1774420479.3381226,23
1774420479.3541389,22
1774420479.370234,21
1774420479.3863363,20
1774420479.4057438,19
1774420479.426272,19
1774420479.440799,21
1774420479.456903,25
1774420479.4687462,31
1774420479.4901705,39
1774420479.5026903,48
1774420479.5242138,58
1774420479.5361204,65
1774420479.5539634,69
1774420479.576496,70
1774420479.5850391,68
1774420479.6082659,65
1774420479.6247418,61
1774420479.6342783,58
1774420479.656683,56
1774420479.6728861,54
1774420479.6889794,53
1774420479.7091324,51
1774420479.720465,49
1774420479.7364385,48
1774420479.7524073,47
1774420479.76879,46
1774420479.7859464,45
1774420479.811331,45
1774420479.8207774,45
1774420479.8444803,44
1774420479.8584018,43
1774420479.879547,41
1774420479.8911254,40
1774420479.911249,38
1774420479.9220889,35
1774420479.943162,33
1774420479.9554207,31
1774420479.9793084,29
1774420479.9859054,27
1774420480.0024598,26
1774420480.0228584,24
1774420480.0342093,23
1774420480.0598123,22
1774420480.069787,22
1774420480.085941,21
1774420480.1018465,20
1774420480.1179216,19
1774420480.1362548,19
1774420480.1554754,18
1774420480.1675873,17
1774420480.1853778,17
1774420480.21133,17
1774420480.2196538,20
1774420480.2432563,26
1774420480.2577677,34
1774420480.2719903,44
1774420480.2903318,54
1774420480.3097897,63
1774420480.322723,69
1774420480.3419905,72
1774420480.354049,71
1774420480.3775878,68
1774420480.3868778,64
1774420480.4060287,61
1774420480.421819,59
1774420480.4346907,57
1774420480.4538267,56
1774420480.4700117,55
1774420480.4854858,53
1774420480.5030077,52
1774420480.518494,50
1774420480.5371022,48
1774420480.5519748,47
1774420480.5702796,46
1774420480.5931644,45
1774420480.6111917,45
1774420480.6179473,44
1774420480.6413,43
1774420480.658378,41
1774420480.6757126,40
1774420480.6898847,38
1774420480.7078056,35
1774420480.7187226,32
1774420480.738097,30
1774420480.7559044,28
1774420480.7701218,26
1774420480.7914486,25
1774420480.8030696,24
1774420480.8269436,23
1774420480.8359919,22
1774420480.8519883,21
1774420480.8678215,21
1774420480.8849673,19
1774420480.9080095,19
1774420480.926628,18
1774420480.9446084,17
1774420480.9581661,16
1774420480.9734597,15
1774420480.9931762,14
1774420481.0085063,13
1774420481.0258346,15
1774420481.041645,20
1774420481.058518,27
1774420481.0748546,36
1774420481.0902622,46
1774420481.1063461,56
1774420481.1224582,64
1774420481.1354234,68
1774420481.1539545,69
1774420481.170438,67
1774420481.1932173,64
1774420481.2023797,62
1774420481.2183723,59
1774420481.234367,58
1774420481.2606382,57
1774420481.2709546,56
1774420481.2948022,54
1774420481.3095043,53
1774420481.3184516,51
1774420481.337387,49
1774420481.361074,47
1774420481.3765268,45
1774420481.393853,44
1774420481.409881,44
1774420481.418672,43
1774420481.4418995,42
1774420481.4578352,41
1774420481.4738286,40
1774420481.4887688,38
1774420481.5058682,36
1774420481.5220127,34
1774420481.538108,32
1774420481.5561886,30
1774420481.5700047,28
1774420481.5862622,27
1774420481.6018946,25
1774420481.6182728,24
1774420481.6340969,23
1774420481.66016,22
1774420481.6766074,21
1774420481.6917894,21
1774420481.7108843,20
1774420481.7318313,18
1774420481.7353818,18
1774420481.7584002,17
1774420481.76809,16
1774420481.792363,16
1774420481.808469,15
1774420481.8261406,14
1774420481.8405707,14
1774420481.8559756,17
1774420481.868764,22
1774420481.8900566,30
1774420481.9034045,40
1774420481.9195123,49
1774420481.9354336,58
1774420481.954808,65
1774420481.972289,68
1774420481.9975035,68
1774420482.0040193,66
1774420482.02619,63
1774420482.0353074,61
1774420482.0623798,59
1774420482.0714314,58
1774420482.0924287,57
1774420482.1103926,56
1774420482.1178079,54
1774420482.134609,53
1774420482.1579292,51
1774420482.1701267,50
1774420482.1901073,48
1774420482.2060287,47
1774420482.2218523,45
1774420482.237083,44
1774420482.2529895,44
1774420482.2722638,42
1774420482.2867272,40
1774420482.3058963,39
1774420482.3276236,36
1774420482.339376,34
1774420482.3628352,32
1774420482.3764966,30
1774420482.3933306,28
1774420482.4018123,27
1774420482.424483,25
1774420482.4340544,24
1774420482.4557598,23
1774420482.4767568,22
1774420482.4870162,21
1774420482.504716,20
1774420482.5277233,20
1774420482.5384645,18
1774420482.554593,18
1774420482.5705955,17
1774420482.586542,16
1774420482.6101375,15
1774420482.618585,14
1774420482.640393,13
1774420482.65989,12
1774420482.6716437,13
1774420482.6932068,15
1774420482.7059164,21
1774420482.7269156,29
1774420482.739578,39
1774420482.7594943,48
1774420482.7715764,58
1774420482.785612,65
1774420482.8024511,69
1774420482.8235078,69
1774420482.8364527,67
1774420482.855964,64
1774420482.8717313,61
1774420482.8938944,59
1774420482.903814,58
1774420482.918675,57
1774420482.934741,56
1774420482.9507961,55
1774420482.9673786,53
1774420482.9954584,51
1774420483.0098724,50
1774420483.0267653,49
1774420483.043251,48
1774420483.0552545,47
1774420483.073782,47
1774420483.0903616,46
1774420483.1027207,45
1774420483.118939,43
1774420483.1380188,42
1774420483.1520538,40
1774420483.1731956,38
1774420483.189995,36
1774420483.2018187,34
1774420483.225135,32
1774420483.234068,31
1774420483.256345,30
1774420483.2688942,29
1774420483.2850208,28
1774420483.300934,27
1774420483.320174,26
1774420483.343289,25
1774420483.3582633,25
1774420483.3712215,24
1774420483.3877864,23
1774420483.4096777,22
1774420483.4250014,21
1774420483.4420085,20
1774420483.4578104,20
1774420483.4738367,22
1774420483.4897485,27
1774420483.5058024,34
1774420483.5218117,42
1774420483.535409,52
1774420483.5572286,59
1774420483.5698574,65
1774420483.5858047,67
1774420483.6022482,66
1774420483.6267834,63
1774420483.6340506,60
1774420483.6509445,57
1774420483.6673982,54
1774420483.6857028,52
1774420483.7109556,51
1774420483.7248282,50
1774420483.7425063,48
1774420483.7546766,46
1774420483.7696488,45
1774420483.7928257,44
1774420483.8056417,43
1774420483.8247435,43
1774420483.8410242,43
1774420483.8508952,43
1774420483.874674,42
1774420483.8888566,41
1774420483.9047542,39
1774420483.9209592,37
1774420483.9370494,34
1774420483.9528105,32
1774420483.9689314,30
1774420483.9851186,28
1774420484.0047956,26
1774420484.0185149,24
1774420484.038324,23
1774420484.0519598,23
1774420484.073707,22
1774420484.0910895,21
1774420484.1097994,21
1774420484.1220074,20
1774420484.135179,19
1774420484.1579783,18
1774420484.168902,17
1774420484.1919038,16
1774420484.2007623,16
1774420484.2229016,15
1774420484.2373734,17
1774420484.2533844,20
1774420484.2732704,27
1774420484.2857332,36
1774420484.3028138,45
1774420484.3189943,55
1774420484.334996,62
1774420484.3511386,66
1774420484.3698106,67
1774420484.3846164,65
1774420484.4066806,62
1774420484.4308116,59
1774420484.4341342,57
1774420484.4594083,55
1774420484.469909,53
1774420484.4922466,52
1774420484.501215,51
1774420484.5237935,50
1774420484.5363634,48
1774420484.5587907,46
1774420484.5765622,45
1774420484.5876453,44
1774420484.6029222,43
1774420484.622436,42
1774420484.6349535,41
1774420484.6544151,40
1774420484.6706045,39
1774420484.6864865,37
1774420484.705967,35
1774420484.7192447,33
1774420484.7344067,31
1774420484.7664073,29
1774420484.7683883,27
1774420484.7940807,25
1774420484.8046122,24
1774420484.8299277,22
1774420484.8416126,22
1774420484.8624196,21
1774420484.8725827,21
1774420484.8863645,20
1774420484.908072,19
1774420484.92496,19
1774420484.9419198,18
1774420484.9579318,18
1774420484.9738173,17
1774420484.9898984,16
1774420485.006117,14
1774420485.0262039,13
1774420485.0369751,12
1774420485.0506349,13
1774420485.0697098,16
1774420485.0850894,22
1774420485.1017096,32
1774420485.1174114,41
1774420485.1367452,52
1774420485.1526763,60
1774420485.1728935,66
1774420485.1867735,68
1774420485.2040708,68
1774420485.2277997,65
1774420485.2342122,61
1774420485.259182,58
1774420485.270243,56
1774420485.2919035,55
1774420485.3042874,53
1774420485.3279934,52
1774420485.3345616,51
1774420485.3512042,50
1774420485.3693476,48
1774420485.3872204,46
1774420485.4039109,44
1774420485.4200864,43
1774420485.4359486,41
1774420485.4525647,40
1774420485.4679172,40
1774420485.4841683,39
1774420485.5065348,37
1774420485.5239916,35
1774420485.5374775,33
1774420485.562162,31
1774420485.5681427,28
1774420485.5894148,26
1774420485.6074553,24
1774420485.6267827,23
1774420485.6372757,21
1774420485.6590645,21
1774420485.670591,20
1774420485.6905174,19
1774420485.7065034,18
1774420485.7224672,18
1774420485.7385674,17
1774420485.7544067,17
1774420485.7703907,16
1774420485.78571,16
1774420485.8016348,15
1774420485.8204298,14
1774420485.841254,14
1774420485.8595657,12
1774420485.8699026,12
1774420485.8902504,11
1774420485.9074826,11
1774420485.9215543,13
1774420485.938701,19
1774420485.9605274,27
1774420485.9704888,38
1774420485.9924343,48
1774420486.0084465,58
1774420486.0244412,65
1774420486.0376577,68
1774420486.0558784,68
1774420486.0703285,66
1774420486.0884461,63
1774420486.1044362,59
1774420486.1209416,56
1774420486.1370173,54
1774420486.1546512,53
1774420486.1676147,52
1774420486.1910641,51
1774420486.2051613,49
1774420486.218603,48
1774420486.2397125,46
1774420486.2628179,44
1774420486.2755432,43
1774420486.286949,42
1774420486.3019214,41
1774420486.3267329,41
1774420486.340357,40
1774420486.353077,39
1774420486.3700924,37
1774420486.3905149,34
1774420486.402634,32
1774420486.4230707,30
1774420486.4341693,28
1774420486.4547582,26
1774420486.4677083,24
1774420486.4939792,23
1774420486.5018678,22
1774420486.5194852,21
1774420486.537023,20
1774420486.5572608,19
1774420486.56914,19
1774420486.5902755,18
1774420486.6100004,18
1774420486.6218386,17
1774420486.639825,16
1774420486.651183,15
1774420486.6699388,15
1774420486.686876,14
1774420486.706044,13
1774420486.7215831,12
1774420486.73798,12
1774420486.7566621,12
1774420486.77251,14
1774420486.7886562,18
1774420486.8035693,26
1774420486.8196197,36
1774420486.8356712,46
1774420486.850504,56
1774420486.881299,64
1774420486.8881633,68
1774420486.915591,69
1774420486.9186788,67
1774420486.9399571,64
1774420486.9537635,61
1774420486.979546,58
1774420486.9888918,56
1774420487.0108569,54
1774420487.0245218,54
1774420487.041857,53
1774420487.0577958,53
1774420487.0736287,52
1774420487.094381,51
1774420487.1048255,50
1774420487.1217942,50
1774420487.1353993,49
1774420487.1530972,49
1774420487.1696897,48
1774420487.1848,47
1774420487.2006946,45
1774420487.2171845,42
1774420487.2432294,40
1774420487.250476,38
1774420487.2740607,36
1774420487.2853992,34
1774420487.3099577,32
1774420487.3264966,31
1774420487.3343005,30
1774420487.3560348,29
1774420487.3756714,28
1774420487.3878386,27
1774420487.4054453,26
1774420487.4174156,26
1774420487.439544,25
1774420487.4555163,24
1774420487.471466,23
1774420487.4877224,22
1774420487.506789,21
1774420487.5234606,20
1774420487.5414188,19
1774420487.5605547,20
1774420487.5678158,22
1774420487.5935116,27
1774420487.6103358,34
1774420487.6171536,43
1774420487.64755,53
1774420487.65066,62
1774420487.6697524,68
1774420487.692314,71
1774420487.7098475,70
1774420487.7266774,67
1774420487.7430298,63
1774420487.7590497,60
1774420487.7718773,57
1774420487.7913644,54
1774420487.8068182,52
1774420487.8233771,50
1774420487.8404942,48
1774420487.855072,47
1774420487.8712096,46
1774420487.8900518,46
1774420487.9011178,45
1774420487.9192932,46
1774420487.9355063,45
1774420487.9507391,45
1774420487.968655,44
1774420487.9884877,43
1774420488.009608,41
1774420488.0194762,40
1774420488.0359051,37
1774420488.0569391,35
1774420488.0765731,33
1774420488.0838358,30
1774420488.1106226,28
1774420488.1199455,26
1774420488.1379414,25
1774420488.157347,24
1774420488.1687124,23
1774420488.185924,21
1774420488.2068024,21
1774420488.2226462,20
1774420488.23863,20
1774420488.250474,18
1774420488.2707727,18
1774420488.2883244,17
1774420488.3028283,16
1774420488.3183422,16
1774420488.3343728,15
1774420488.350638,15
1774420488.3671858,17
1774420488.3892767,22
1774420488.4085724,30
1774420488.4177244,40
1774420488.4350235,49
1774420488.4504378,59
1774420488.47074,67
1774420488.4837308,70
1774420488.5039153,70
1774420488.5262597,68
1774420488.5379696,65
1774420488.5556548,61
1774420488.573625,58
1774420488.5872095,56
1774420488.6063728,54
1774420488.6208127,53
1774420488.6351519,52
1774420488.6576912,50
1774420488.6699781,49
1774420488.684287,48
1774420488.7039213,47
1774420488.7266915,45
1774420488.7462656,45
1774420488.7524743,44
1774420488.7765357,43
1774420488.7868803,42
1774420488.8049576,41
1774420488.8206027,39
1774420488.8431785,37
1774420488.8521807,34
1774420488.8758113,32
1774420488.8908923,30
1774420488.9021556,29
1774420488.923146,27
1774420488.9391637,26
1774420488.9506838,25
1774420488.9714103,24
1774420488.9837072,22
1774420489.0010176,21
1774420489.0189767,20
1774420489.035517,20
1774420489.05097,19
1774420489.0762496,18
1774420489.088475,17
1774420489.1142323,17
1774420489.119675,16
1774420489.1376984,15
1774420489.1541376,14
1774420489.1730118,13
1774420489.1899338,13
1774420489.2035658,15
1774420489.2202747,20
1774420489.2373962,28
1774420489.2511187,38
1774420489.2712617,48
1774420489.2893865,58
1774420489.3015013,66
1774420489.3183146,70
1774420489.3398418,71
1774420489.3525755,70
1774420489.3685672,67
1774420489.3846648,63
1774420489.4006028,60
1774420489.428762,58
1774420489.4401248,56
1774420489.4600837,55
1774420489.4797432,54
1774420489.4892197,52
1774420489.5103946,51
1774420489.5219262,49
1774420489.5338104,48
1774420489.5540004,47
1774420489.573325,46
1774420489.5844667,45
1774420489.6093664,44
1774420489.6177385,43
1774420489.6356676,41
1774420489.6503255,40
1774420489.6715364,38
1774420489.6879578,35
1774420489.7036917,33
1774420489.7197466,30
1774420489.7447948,28
1774420489.7503593,27
1774420489.7754264,25
1774420489.7932467,24
1774420489.8127642,22
1774420489.81816,21
1774420489.8386216,20
1774420489.864224,19
1774420489.8760898,19
1774420489.8922594,18
1774420489.9041312,18
1774420489.9233992,18
1774420489.943676,16
1774420489.9541368,16
1774420489.9753158,15
1774420489.989796,14
1774420490.0072925,13
1774420490.019364,12
1774420490.0391793,12
1774420490.0503516,13
1774420490.0712988,16
1774420490.083755,22
1774420490.1032455,31
1774420490.118276,40
1774420490.1365623,52
1774420490.1551623,61
1774420490.1717951,68
1774420490.1886914,71
1774420490.207926,71
1774420490.2171586,68
1774420490.2442086,64
1774420490.259875,61
1774420490.276556,58
1774420490.2881832,56
1774420490.315228,54
1774420490.3248577,53
1774420490.3421748,51
1774420490.3544228,50
1774420490.3741887,48
1774420490.385846,47
1774420490.4079535,46
1774420490.4213724,45
1774420490.4400144,44
1774420490.4522934,44
1774420490.4713833,43
1774420490.4893136,42
1774420490.503598,40
1774420490.518591,39
1774420490.5343237,37
1774420490.5542212,34
1774420490.5747666,32
1774420490.5931528,29
1774420490.6110651,27
1774420490.624988,25
1774420490.6395102,24
1774420490.657771,22
1774420490.667546,21
1774420490.6842992,21
1774420490.7088594,20
1774420490.72063,19
1774420490.7405286,18
1774420490.7539628,18
1774420490.7716906,17
1774420490.785506,16
1774420490.8032403,16
1774420490.8189847,15
1774420490.8353102,14
1774420490.8530548,13
1774420490.8760133,13
1774420490.8836112,12
1774420490.9026678,12
1774420490.9239204,15
1774420490.944221,21
1774420490.9579213,30
1774420490.9759111,40
1774420490.993214,50
1774420491.0100875,60
1774420491.0267973,67
1774420491.0405421,70
1774420491.0575035,70
1774420491.075179,67
1774420491.087955,64
1774420491.1050198,60
1774420491.1173465,58
1774420491.1357703,55
1774420491.1517992,53
1774420491.170238,52
1774420491.186325,51
1774420491.2022161,50
1774420491.2184155,48
1774420491.2362366,47
1774420491.2502384,47
1774420491.2712379,45
1774420491.288842,45
1774420491.3069265,44
1774420491.3258147,43
1774420491.3434572,42
1774420491.3558862,40
1774420491.3766806,39
1774420491.3932114,36
1774420491.403415,34
1774420491.4199731,31
1774420491.443208,29
1774420491.454384,27
1774420491.4783063,26
1774420491.4894433,24
1774420491.5054297,23
1774420491.5219586,22
1774420491.5362937,21
1774420491.5522552,20
1774420491.5736294,20
1774420491.5856972,19
1774420491.600319,18
1774420491.6186147,18
1774420491.6425395,17
1774420491.6506388,17
1774420491.6747708,16
1774420491.686267,15
1774420491.7097833,14
1774420491.7267992,12
1774420491.743186,11
1774420491.7509673,9
1774420491.7756946,8
1774420491.7924247,9
1774420491.8074136,13
1774420491.8229597,20
1774420491.8389113,30
1774420491.8560896,40
1774420491.8707535,52
1774420491.8868334,62
1774420491.9028993,69
1774420491.9187787,71
1774420491.9347684,71
1774420491.9508164,68
1774420491.967292,64
1774420491.9878023,60
1774420492.0024395,58
1774420492.0188768,55
1774420492.0420601,54
1774420492.0512447,52
1774420492.07651,51
1774420492.0907037,51
1774420492.110677,50
1774420492.1182318,50
1774420492.1416023,50
1774420492.1530328,50
1774420492.1742914,50
1774420492.1886184,50
1774420492.211123,49
1774420492.2224026,48
1774420492.238595,46
1774420492.2533567,43
1774420492.2696922,41
1774420492.2853906,39
1774420492.3089683,37
1774420492.3172846,35
1774420492.3432784,33
1774420492.3550024,32
1774420492.3693123,31
1774420492.3879392,30
1774420492.412956,29
1774420492.418002,29
1774420492.4374278,28
1774420492.4508038,27
1774420492.4740317,27
1774420492.485661,26
1774420492.508842,25
1774420492.5248153,25
1774420492.5397577,24
1774420492.5510294,23
1774420492.5720081,22
1774420492.5908668,22
1774420492.6036637,21
1774420492.6175778,20
1774420492.637801,22
1774420492.6525998,28
1774420492.6716206,36
1774420492.6956823,45
1774420492.705702,55
1774420492.7225792,64
1774420492.7432485,70
1774420492.7543511,73
1774420492.7717915,72
1774420492.7857635,69
1774420492.8007238,65
1774420492.8258636,61
1774420492.834799,58
1774420492.8501754,55
1774420492.8781335,53
1774420492.8841035,51
1774420492.9081104,49
1774420492.9215205,48
1774420492.9375489,48
1774420492.954335,47
1774420492.9697618,48
1774420492.9860933,48
1774420493.0003848,48
1774420493.0248036,47
1774420493.0335917,46
1774420493.0598361,45
1774420493.0777283,43
1774420493.08404,40
1774420493.1021214,38
1774420493.1178288,36
1774420493.135656,33
1774420493.15799,31
1774420493.1715612,30
1774420493.1858077,28
1774420493.205713,27
1774420493.2212358,26
1774420493.239025,25
1774420493.2501268,24
1774420493.2726653,24
1774420493.2887414,24
1774420493.3100114,23
1774420493.3232377,23
1774420493.3431659,22
1774420493.3526006,22
1774420493.366908,21
1774420493.3846965,21
1774420493.400938,23
1774420493.4265773,28
1774420493.4367073,36
1774420493.4604692,44
1774420493.4703639,54
1774420493.4908867,64
1774420493.501366,71
1774420493.5219402,74
1774420493.5369215,73
1774420493.550177,71
1774420493.5677047,67
1774420493.5895393,63
1774420493.60863,60
1774420493.6195946,58
1774420493.639106,57
1774420493.656567,55
1774420493.6725595,54
1774420493.6886556,53
1774420493.704685,51
1774420493.7206392,50
1774420493.7357028,48
1774420493.7528417,48
1774420493.7766807,47
1774420493.7840414,47
1774420493.8005407,46
1774420493.8256745,44
1774420493.83656,43
1774420493.858158,41
1774420493.8765256,39
1774420493.8908286,37
1774420493.908178,34
1774420493.9252942,32
1774420493.9408998,30
1774420493.953671,29
1774420493.9755197,28
1774420493.9877806,26
1774420494.0006242,25
1774420494.0190015,25
1774420494.0395894,24
1774420494.0589662,23
1774420494.0703933,23
1774420494.087808,22
1774420494.1035252,22
1774420494.1195455,20
1774420494.1355162,20
1774420494.1517434,19
1774420494.170898,18
1774420494.1932034,18
1774420494.2075655,18
1774420494.2201402,21
1774420494.2431343,27
1774420494.259891,36
1774420494.2728274,46
1774420494.286453,56
1774420494.3102975,65
1774420494.325961,71
1774420494.3433745,73
1774420494.3529096,72
1774420494.3728786,70
1774420494.3847482,66
1774420494.4055574,63
1774420494.4214513,60
1774420494.4363594,58
1774420494.4532351,57
1774420494.466845,56
1774420494.4862695,54
1774420494.5031798,53
1774420494.5214972,51
1774420494.5334284,50
1774420494.5607204,49
1774420494.5765572,48
1774420494.5938222,47
1774420494.6094823,46
1774420494.6267366,44
1774420494.6442862,42
1774420494.6573665,41
1774420494.6673918,40
1774420494.6876788,37
1774420494.702583,35
1774420494.7236242,33
1774420494.7398689,31
1774420494.750397,29
1774420494.7718542,27
1774420494.789988,26
1774420494.8017418,24
1774420494.8182073,27
1774420494.8340268,26
1774420494.8511064,25
1774420494.8741488,24
1774420494.893365,23
1774420494.9111326,22
1774420494.9193075,17
1774420494.9395945,16
1774420494.960073,15
1774420494.96919,14
1774420494.9853046,13
1774420495.0025687,12
1774420495.0189455,11
1774420495.0353882,10
1774420495.052495,9
1774420495.0716877,12
1774420495.0869372,18
1774420495.102909,26
1774420495.117055,37
1774420495.134667,48
1774420495.1506872,59
1774420495.170795,67
1774420495.1963937,71
1774420495.201695,71
1774420495.2265553,69
1774420495.2370064,65
1774420495.261614,61
1774420495.2671652,59
1774420495.2932563,57
1774420495.308101,55
1774420495.3186007,53
1774420495.34331,51
1774420495.3573992,49
1774420495.3688462,47
1774420495.3857577,46
1774420495.4086692,45
1774420495.4176795,45
1774420495.4369457,45
1774420495.458098,44
1774420495.4669101,43
1774420495.4933686,42
1774420495.5009747,40
1774420495.5174708,39
1774420495.533685,36
1774420495.559437,34
1774420495.5673125,32
1774420495.595063,29
1774420495.6042192,27
1774420495.6193833,25
1774420495.634203,24
1774420495.657403,22
1774420495.6682484,21
1774420495.692338,20
1774420495.7003436,19
1774420495.7180388,18
1774420495.7398462,18
1774420495.755974,16
1774420495.7720435,16
1774420495.7868052,15
1774420495.804039,14
1774420495.8201787,13
1774420495.839311,12
1774420495.8509557,12
1774420495.8669603,11
1774420495.891696,10
1774420495.9138424,9
1774420495.9222255,8
1774420495.9458196,8
1774420495.9557307,10
1774420495.9720786,14
1774420495.9920752,22
1774420496.004454,32
1774420496.021996,43
1774420496.0346348,55
1774420496.0577688,65
1774420496.0690432,71
1774420496.0888417,73
1774420496.1002748,71
1774420496.1210399,68
1774420496.135875,65
1774420496.1507769,61
1774420496.1761513,58
1774420496.1870182,56
1774420496.2056565,55
1774420496.2258613,54
1774420496.2433183,52
1774420496.2501636,51
1774420496.2765183,50
1774420496.2862833,49
1774420496.3033178,49
1774420496.3198535,48
1774420496.3379302,47
1774420496.350383,45
1774420496.3702028,44
1774420496.3890924,41
1774420496.4018807,40
1774420496.4200873,37
1774420496.4339333,34
1774420496.452395,32
1774420496.4676497,30
1774420496.4842918,27
1774420496.5069659,25
1774420496.518616,23
1774420496.5333793,21
1774420496.5520148,20
1774420496.5770042,19
1774420496.59191,17
1774420496.6118598,17
1774420496.6270041,16
1774420496.6428323,15
1774420496.6589425,15
1774420496.6748536,15
1774420496.6908774,15
1774420496.7033098,15
1774420496.7184289,15
1774420496.734049,14
1774420496.7529864,13
1774420496.769473,12
1774420496.7869356,12
1774420496.80309,11
1774420496.8190258,10
1774420496.8350105,10
1774420496.8543816,12
1774420496.8666515,16
1774420496.8891528,24
1774420496.9110436,34
1774420496.9198341,44
1774420496.9431856,56
1774420496.9524848,66
1774420496.9709163,72
1774420496.9943433,74
1774420497.0083735,72
1774420497.0210512,69
1774420497.0374599,65
1774420497.0574558,61
1774420497.0726764,58
1774420497.0893946,55
1774420497.105434,54
1774420497.1213467,53
1774420497.1345215,52
1774420497.1522982,51
1774420497.1707747,49
1774420497.185603,48
1774420497.2014618,47
1774420497.2175379,46
1774420497.2345269,45
1774420497.26505,45
1774420497.266623,43
1774420497.2912652,41
1774420497.307711,40
1774420497.3214397,37
1774420497.3385677,34
1774420497.3515382,31
1774420497.3768222,28
1774420497.3929377,25
1774420497.3999338,23
1774420497.423326,22
1774420497.4446795,21
1774420497.454716,20
1774420497.4698024,18
1774420497.488325,18
1774420497.5048416,17
1774420497.520036,17
1774420497.536277,16
1774420497.5520904,16
1774420497.5720377,16
1774420497.5836368,16
1774420497.600622,16
1774420497.6255558,15
1774420497.6360118,15
1774420497.6612072,14
1774420497.6667562,13
1774420497.6931784,12
1774420497.7090616,11
1774420497.7251027,10
1774420497.734933,10
1774420497.7568738,13
1774420497.7729216,18
1774420497.7888575,27
1774420497.8049242,37
1774420497.8209517,48
1774420497.8370714,59
1774420497.8528686,68
1774420497.8726254,73
1774420497.8840275,74
1774420497.8999429,72
1774420497.926771,68
1774420497.9367156,64
1774420497.9639227,60
1774420497.9693754,57
1774420497.9931822,54
1774420498.001986,53
1774420498.0278637,52
1774420498.0366778,51
1774420498.052725,50
1774420498.067254,50
1774420498.08348,50
1774420498.099875,50
1774420498.1173656,51
1774420498.135211,51
1774420498.1550603,50
1774420498.1700072,49
1774420498.1906846,47
1774420498.2020128,44
1774420498.2248719,41
1774420498.2340407,39
1774420498.2500029,36
1774420498.2672725,33
1774420498.293177,31
1774420498.3067918,29
1774420498.3246984,28
1774420498.337785,27
1774420498.3581424,26
1774420498.3698506,26
1774420498.3940568,25
1774420498.4049437,25
1774420498.4251306,24
1774420498.4371228,24
1774420498.454831,24
1774420498.4665282,24
1774420498.488072,23
1774420498.5021296,22
1774420498.5292597,21
1774420498.536103,21
1774420498.552278,20
1774420498.5728629,21
1774420498.5936327,24
1774420498.609959,30
1774420498.6245575,39
1774420498.637829,48
1774420498.6542134,59
1774420498.6767893,67
1774420498.6947114,73
1774420498.7062504,76
1774420498.7173,74
1774420498.742934,70
1774420498.758752,66
1774420498.76799,62
1774420498.7838962,59
1774420498.8035064,56
1774420498.8179288,54
1774420498.8339097,51
1774420498.8547788,50
1774420498.8701448,48
1774420498.885838,47
1774420498.9020205,46
1774420498.9266043,46
1774420498.9422376,47
1774420498.9569383,47
1774420498.9732969,47
1774420498.993506,45
1774420499.002769,43
1774420499.0172584,41
1774420499.0402982,38
1774420499.060078,36
1774420499.0737302,33
1774420499.0869632,30
1774420499.1068656,28
1774420499.1182036,26
1774420499.133741,24
1774420499.1540756,23
1774420499.1675096,22
1774420499.186096,21
1774420499.2052038,21
1774420499.2207003,20
1774420499.2358527,20
1774420499.2540853,20
1774420499.2664802,19
1774420499.283822,18
1774420499.299926,17
1774420499.317026,16
1774420499.3331525,16
1774420499.3600178,16
1774420499.3733203,16
1774420499.3916411,18
1774420499.4097233,24
1774420499.4229178,32
1774420499.4336934,42
1774420499.4589615,53
1774420499.4711642,64
1774420499.4928522,72
1774420499.5003963,76
1774420499.5243483,77
1774420499.5362601,75
1774420499.557622,72
1774420499.5680227,68
1774420499.5902827,64
1774420499.6035776,62
1774420499.6204078,60
1774420499.6360612,58
1774420499.6523275,56
1774420499.6684916,55
1774420499.684408,54
1774420499.700533,53
1774420499.718937,52
1774420499.7361212,52
1774420499.756476,52
1774420499.777931,54
1774420499.7840085,62
1774420499.8067634,75
1774420499.8265047,91
1774420499.8425293,112
1774420499.8552053,127
1774420499.8744617,127
1774420499.890381,127
1774420499.9059973,127
1774420499.9243922,127
1774420499.9381247,127
1774420499.9564297,127
1774420499.9723806,127
1774420499.9883757,127
1774420500.0017185,127
1774420500.0178328,127
1774420500.0340416,123
1774420500.050568,114
1774420500.0664716,106
1774420500.095098,97
1774420500.1043153,90
1774420500.1205585,83
1774420500.1362052,77
1774420500.1595385,71
1774420500.1702182,65
1774420500.1898968,60
1774420500.2064846,56
1774420500.2262871,52
1774420500.2412398,49
1774420500.2509015,48
1774420500.2743561,49
1774420500.2905152,52
1774420500.305775,55
1774420500.3182206,57
1774420500.3357646,59
1774420500.3531375,59
1774420500.3697605,57
1774420500.3943908,55
1774420500.4017544,52
1774420500.4190183,49
1774420500.434584,46
1774420500.4565244,44
1774420500.466755,42
1774420500.4839032,40
1774420500.5138626,40
1774420500.5179725,38
1774420500.5451596,37
1774420500.5576339,35
1774420500.5679944,34
1774420500.5887372,33
1774420500.6066544,32
1774420500.623504,31
1774420500.638231,29
1774420500.6568086,28
1774420500.668324,26
1774420500.6920962,25
1774420500.7047274,24
1774420500.7208884,22
1774420500.736996,21
1774420500.7511666,19
1774420500.768754,18
1774420500.787991,17
1774420500.8008375,16
1774420500.816993,15
1774420500.8346047,14
1774420500.8527367,14
1774420500.8697073,14
1774420500.8840284,14
1774420500.9042711,13
1774420500.9248128,13
1774420500.9397092,13
1774420500.9497857,13
1774420500.971977,13
1774420500.9905007,13
1774420501.0019305,13
1774420501.0248954,13
1774420501.0406454,13
1774420501.057482,13
1774420501.0752604,13
1774420501.08881,13
1774420501.1087146,13
1774420501.1204922,14
1774420501.1344466,17
1774420501.1516774,22
1774420501.169228,27
1774420501.1872203,33
1774420501.2003205,39
1774420501.216764,43
1774420501.2332113,46
1774420501.250461,48
1774420501.2793999,47
1774420501.293303,46
1774420501.303856,45
1774420501.3165402,44
1774420501.3431373,43
1774420501.3597972,43
1774420501.3708637,43
1774420501.39223,42
1774420501.4099462,42
1774420501.4222012,42
1774420501.4403036,41
1774420501.452855,41
1774420501.4724379,40
1774420501.4873557,40
1774420501.5007563,40
1774420501.5163984,40
1774420501.5384588,40
1774420501.5540595,39
1774420501.567506,38
1774420501.5834944,37
1774420501.5998938,36
1774420501.6265566,35
1774420501.64747,34
1774420501.649798,33
1774420501.6765223,32
1774420501.688148,32
1774420501.711001,31
1774420501.7261386,31
1774420501.7406464,30
1774420501.7496881,30
1774420501.7775273,29
1774420501.793089,29
1774420501.8043103,29
1774420501.8175745,29
1774420501.8364592,28
1774420501.8508513,28
1774420501.8758798,28
1774420501.8870382,27
1774420501.9058383,27
1774420501.919222,26
1774420501.9352295,26
1774420501.9497547,25
1774420501.973769,25
1774420501.9871593,24
1774420502.0031838,24
1774420502.017601,25
1774420502.0458803,28
1774420502.0507114,32
1774420502.075542,37
1774420502.0859895,42
1774420502.109921,48
1774420502.117959,52
1774420502.136213,55
1774420502.1544726,57
1774420502.1716454,56
1774420502.1899204,54
1774420502.2058506,52
1774420502.2221146,51
1774420502.2380483,49
1774420502.2528756,48
1774420502.2697423,47
1774420502.2900748,47
1774420502.3009288,46
1774420502.3174965,46
1774420502.3334663,46
1774420502.3497465,46
1774420502.3743937,46
1774420502.396953,45
1774420502.405628,45
1774420502.4214003,45
1774420502.442971,44
1774420502.4513867,43
1774420502.4664543,42
1774420502.4832006,41
1774420502.5010066,40
1774420502.5215101,40
1774420502.5414455,38
1774420502.552911,37
1774420502.5783532,36
1774420502.5894167,35
1774420502.6059418,34
1774420502.621447,34
1774420502.6373947,33
1774420502.6534562,33
1774420502.668478,33
1774420502.6844618,32
1774420502.700418,32
1774420502.7247157,31
1774420502.7375808,31
1774420502.7601187,31
1774420502.7718086,31
1774420502.7901018,30
1774420502.800093,30
1774420502.8178108,29
1774420502.8434181,29
1774420502.8497741,28
1774420502.8730698,28
1774420502.8829963,28
1774420502.90748,29
1774420502.918858,31
1774420502.9366162,35
1774420502.9498577,40
1774420502.9714735,45
1774420502.986548,51
1774420503.0026789,55
1774420503.0179422,57
1774420503.0418315,58
1774420503.0508964,58
1774420503.0670025,56
1774420503.0830038,54
1774420503.1018398,53
1774420503.1204135,51
1774420503.1354802,50
1774420503.150997,49
1774420503.1731296,49
1774420503.1888974,48
1774420503.2028427,48
1774420503.2200758,48
1774420503.2359033,48
1774420503.2506094,48
1774420503.273067,48
1774420503.282915,48
1774420503.3050725,48
1774420503.3173523,47
1774420503.3384547,46
1774420503.3531594,45
1774420503.3683758,44
1774420503.3851612,42
1774420503.401028,40
1774420503.4236505,40
1774420503.4330807,38
1774420503.4584231,38
1774420503.4733024,37
1774420503.4932003,36
1774420503.5034473,35
1774420503.5202973,35
1774420503.5384364,35
1774420503.5542994,35
1774420503.5687923,34
1774420503.5863626,33
1774420503.609966,33
1774420503.6211636,32
1774420503.6395752,31
1774420503.6523376,31
1774420503.6719506,31
1774420503.6828904,30
1774420503.7015302,31
1774420503.7162967,32
1774420503.7359464,35
1774420503.7495844,39
1774420503.7668457,43
1774420503.7889721,49
1774420503.8000758,53
1774420503.8253634,56
1774420503.8376203,58
1774420503.8612888,58
1774420503.8730397,56
1774420503.8931336,69
1774420503.9017725,66
1774420503.9227648,63
1774420503.9404213,61
1774420503.9531915,60
1774420503.9720309,58
1774420503.9885342,57
1774420504.0052915,56
1774420504.0174701,55
1774420504.03958,54
1774420504.0501196,53
1774420504.0693107,53
1774420504.085768,52
1774420504.104354,52
1774420504.1162245,51
1774420504.134904,49
1774420504.1510086,47
1774420504.1684387,45
1774420504.1888163,42
1774420504.1996336,40
1774420504.2277675,37
1774420504.2391043,35
1774420504.2557576,33
1774420504.2720377,31
1774420504.2899477,30
1774420504.3002381,28
1774420504.3225057,27
1774420504.3429751,26
1774420504.3537211,25
1774420504.3698726,24
1774420504.38582,23
1774420504.403642,22
1774420504.4201505,22
1774420504.4390671,21
1774420504.4498708,20
1774420504.4684842,19
1774420504.4860299,18
1774420504.5031269,17
1774420504.5196667,17
1774420504.5348275,18
1774420504.5507557,22
1774420504.566594,29
1774420504.5978868,39
1774420504.6059306,50
1774420504.6265287,61
1774420504.6401567,70
1774420504.6598916,76
1774420504.667426,78
1774420504.691887,77
1774420504.7093766,74
1774420504.7217057,71
1774420504.737163,68
1774420504.7567353,66
1774420504.7733505,64
1774420504.7864714,63
1774420504.8052824,62
1774420504.8172781,61
1774420504.837614,59
1774420504.8501139,58
1774420504.8693652,57
1774420504.88532,56
1774420504.9013228,55
1774420504.9228814,54
1774420504.9333925,52
1774420504.959762,51
1774420504.980766,49
1774420504.9902444,47
1774420505.001107,45
1774420505.0174549,43
1774420505.041667,40
1774420505.0585346,39
1774420505.0688796,36
1774420505.0863557,33
1774420505.1069732,31
1774420505.1166666,29
1774420505.1341531,27
1774420505.1536567,26
1774420505.171665,25
1774420505.186752,24
1774420505.2015054,23
1774420505.2175603,22
1774420505.2348166,22
1774420505.2502544,20
1774420505.2662427,19
1774420505.282811,18
1774420505.3098617,17
1774420505.3265235,16
1774420505.345613,15
1774420505.3583298,13
1774420505.3735108,12
1774420505.3932722,12
1774420505.4032736,13
1774420505.4189124,15
1774420505.4412403,21
1774420505.4572916,31
1774420505.4734714,42
1774420505.4892616,53
1774420505.5054092,65
1774420505.5202532,73
1774420505.5410638,79
1774420505.5518525,80
1774420505.5679977,78
1774420505.5839016,75
1774420505.6124003,72
1774420505.618701,70
1774420505.6419172,68
1774420505.6530764,66
1774420505.674298,65
1774420505.6859548,64
1774420505.7096646,63
1774420505.7191813,61
1774420505.746191,59
1774420505.7497098,57
1774420505.7746167,56
1774420505.785129,55
1774420505.805451,54
1774420505.823148,52
1774420505.8397663,50
1774420505.8511195,48
1774420505.871364,46
1774420505.8878236,44
1774420505.903957,42
1774420505.9183266,40
1774420505.9358568,38
1774420505.9517293,35
1774420505.9678288,32
1774420505.9835043,30
1774420505.999926,28
1774420506.0180924,26
1774420506.0335085,25
1774420506.0497444,23
1774420506.0775058,22
1774420506.0834181,22
1774420506.1100917,21
1774420506.1167672,20
1774420506.1337798,19
1774420506.1544363,18
1774420506.1771204,17
1774420506.1843104,16
1774420506.203477,15
1774420506.219923,14
1774420506.2379856,13
1774420506.2505288,11
1774420506.2700462,10
1774420506.2873628,10
1774420506.301977,10
1774420506.318114,12
1774420506.3348901,18
1774420506.350515,27
1774420506.3819392,38
1774420506.385674,49
1774420506.4140577,61
1774420506.4200485,70
1774420506.4434593,76
1774420506.4500244,77
1774420506.475735,77
1774420506.4827843,74
1774420506.5009873,71
1774420506.523097,69
1774420506.53748,67
1774420506.5526779,66
1774420506.573638,65
1774420506.589588,63
1774420506.600787,62
1774420506.6235027,60
1774420506.6446562,58
1774420506.6536632,56
1774420506.6696813,54
1774420506.683823,53
1774420506.7017343,51
1774420506.7191594,50
1774420506.7336783,48
1774420506.7496932,46
1774420506.7696984,45
1774420506.7850852,42
1774420506.8061645,40
1774420506.8177774,38
1774420506.8334801,35
1774420506.8503752,33
1774420506.8676744,30
1774420506.8830986,28
1774420506.9095833,26
1774420506.9161882,25
1774420506.9412346,23
1774420506.949991,22
1774420506.9704282,21
1774420506.9883509,20
1774420507.0031953,20
1774420507.020063,18
1774420507.041323,18
1774420507.0542665,17
1774420507.0664492,16
1774420507.0856516,15
1774420507.1021466,13
1774420507.1190517,12
1774420507.1338646,11
1774420507.152687,10
1774420507.1720252,9
1774420507.1895983,9
1774420507.207788,10
1774420507.2194483,14
1774420507.2424862,21
1774420507.2513766,31
1774420507.2743835,41
1774420507.2904873,53
1774420507.3017013,63
1774420507.319673,70
1774420507.333483,74
1774420507.3547666,73
1774420507.3674686,71
1774420507.3868396,68
1774420507.4026737,65
1774420507.4183917,63
1774420507.4343967,61
1774420507.450517,59
1774420507.4668293,58
1774420507.4828665,57
1774420507.5101085,56
1774420507.5233274,55
1774420507.5409112,53
1774420507.5501032,52
1774420507.5722196,50
1774420507.5843885,49
1774420507.6082509,48
1774420507.6193664,46
1774420507.6413972,45
1774420507.6544356,43
1774420507.6734476,41
1774420507.6852193,39
1774420507.7025707,37
1774420507.7220674,34
1774420507.7377257,31
1774420507.752463,29
1774420507.768371,27
1774420507.7843184,25
1774420507.8003724,24
1774420507.81687,23
1774420507.8347466,21
1774420507.8586621,21
1774420507.8731778,19
1774420507.8895662,18
1774420507.9077156,17
1774420507.9209867,15
1774420507.9403157,14
1774420507.9536715,14
1774420507.971976,12
1774420507.987846,11
1774420508.0074375,9
1774420508.0179088,9
1774420508.0349631,8
1774420508.049967,7
1774420508.0707839,6
1774420508.0870194,7
1774420508.1028152,9
1774420508.119106,14
1774420508.133157,22
1774420508.152658,33
1774420508.1659777,44
1774420508.1828156,56
1774420508.2028399,65
1774420508.2265522,71
1774420508.2432213,72
1774420508.2598667,71
1774420508.266282,68
1774420508.2897983,65
1774420508.303102,62
1774420508.320567,60
1774420508.3427823,58
1774420508.3571131,57
1774420508.3767076,56
1774420508.385547,55
1774420508.4018898,54
1774420508.421989,53
1774420508.434827,53
1774420508.4497862,53
1774420508.4711163,53
1774420508.486922,54
1774420508.5010629,54
1774420508.517999,53
1774420508.53312,51
1774420508.5572398,49
1774420508.5698643,46
1774420508.593249,43
1774420508.5996065,40
1774420508.622589,38
1774420508.634483,35
1774420508.6586893,33
1774420508.667528,32
1774420508.692989,31
1774420508.7031403,30
1774420508.722546,29
1774420508.7343316,28
1774420508.7544742,27
1774420508.7729502,26
1774420508.7862709,25
1774420508.7995353,24
1774420508.8180296,23
1774420508.8359454,22
1774420508.8574655,21
1774420508.8659537,19
1774420508.8867364,18
1774420508.8992717,17
1774420508.917905,17
1774420508.936555,21
1774420508.950357,27
1774420508.9762135,35
1774420508.9939964,43
1774420509.0020142,53
1774420509.0260403,61
1774420509.0378368,65
1774420509.0577455,67
1774420509.0708883,65
1774420509.089265,62
1774420509.105279,58
1774420509.1215355,54
1774420509.13311,52
1774420509.150151,49
1774420509.1692703,47
1774420509.190372,45
1774420509.2098093,44
1774420509.2173765,43
1774420509.2335072,43
1774420509.2503128,42
1774420509.2679434,42
1774420509.2973156,43
1774420509.3099062,42
1774420509.3282313,41
1774420509.34321,40
1774420509.3571887,39
1774420509.3708062,37
1774420509.3924968,34
1774420509.4059608,31
1774420509.424566,28
1774420509.4405324,26
1774420509.456429,24
1774420509.4767215,22
1774420509.4884782,21
1774420509.5017283,21
1774420509.5217078,20
1774420509.5400102,20
1774420509.552434,20
1774420509.568567,19
1774420509.5831094,19
1774420509.6019754,18
1774420509.6170554,18
1774420509.6358569,17
1774420509.6675978,16
1774420509.6692245,16
1774420509.6923134,17
1774420509.709765,21
1774420509.7160645,29
1774420509.7424674,38
1774420509.7505496,47
1774420509.7744775,57
1774420509.7907178,65
1774420509.8090737,69
1774420509.8224895,70
1774420509.833713,68
1774420509.854631,65
1774420509.8764722,61
1774420509.8864202,59
1774420509.901643,56
1774420509.9180949,54
1774420509.9347324,52
1774420509.956534,50
1774420509.9743662,49
1774420509.9931083,48
1774420510.0056164,47
1774420510.0285254,46
1774420510.0347474,45
1774420510.0614219,45
1774420510.0673733,44
1774420510.0925565,44
1774420510.099246,43
1774420510.1194596,41
1774420510.1366792,40
1774420510.1565132,37
1774420510.1678994,35
1774420510.1937046,32
1774420510.2045076,30
1774420510.219836,27
1774420510.2355683,26
1774420510.2568352,24
1774420510.2737448,24
1774420510.283778,23
1774420510.2996404,22
1774420510.3170588,22
1774420510.3412843,22
1774420510.34939,21
1774420510.3712661,20
1774420510.3892426,19
1774420510.4015841,19
1774420510.4179378,18
1774420510.4335155,18
1774420510.454287,17
1774420510.466716,18
1774420510.4912353,21
1774420510.5112894,27
1774420510.523104,36
1774420510.5345466,46
1774420510.5550692,57
1774420510.5686255,67
1774420510.5908437,74
1774420510.599376,78
1774420510.618736,79
1774420510.636117,77
1774420510.6500576,73
1774420510.674276,70
1774420510.6901858,68
1774420510.7125838,65
1774420510.7264786,63
1774420510.7432315,61
1774420510.7584257,60
1774420510.769693,58
1774420510.7837238,56
1774420510.8043911,54
1774420510.8251867,52
1774420510.8334587,51
1774420510.8612165,50
1774420510.8686552,49
1774420510.8893504,47
1774420510.8991983,46
1774420510.9214773,44
1774420510.9414392,42
1774420510.9532094,40
1774420510.968026,37
1774420510.9851875,34
1774420511.0004609,31
1774420511.0165062,28
1774420511.0332344,25
1774420511.0517442,23
1774420511.0676332,22
1774420511.0896902,21
1774420511.1063278,20
1774420511.1202202,20
1774420511.1365538,19
1774420511.1594212,18
1774420511.1703267,17
1774420511.1924474,17
1774420511.200898,17
1774420511.2172472,18
1774420511.235612,23
1774420511.2566333,30
1774420511.2660122,40
1774420511.289604,50
1774420511.3013008,61
1774420511.3207972,69
1774420511.3359694,75
1774420511.3523567,77
1774420511.3677807,77
1774420511.3826826,76
1774420511.4096413,74
1774420511.420015,73
1774420511.4360511,71
1774420511.4499846,70
1774420511.4688475,69
1774420511.493161,67
1774420511.5057232,65
1774420511.5247362,62
1774420511.5408735,60
1774420511.5577984,58
1774420511.5698462,57
1774420511.586213,57
1774420511.602388,56
1774420511.6206348,55
1774420511.6361263,54
1774420511.6494951,52
1774420511.6679025,51
1774420511.6859667,48
1774420511.7018602,45
1774420511.7177587,42
1774420511.7367132,40
1774420511.7498803,38
1774420511.7660818,36
1774420511.7899811,34
1774420511.800123,33
1774420511.8259332,32
1774420511.8407907,31
1774420511.8598151,30
1774420511.8723643,28
1774420511.886985,27
1774420511.9023366,25
1774420511.9210114,23
1774420511.9409819,22
1774420511.949743,22
1774420511.9730387,23
1774420511.989357,29
1774420512.0054913,37
1774420512.0159721,46
1774420512.0334725,56
1774420512.0491796,67
1774420512.0697343,74
1774420512.0853055,77
1774420512.1013212,78
1774420512.1176136,77
1774420512.1333866,75
1774420512.150104,72
1774420512.1746147,71
1774420512.1847043,71
1774420512.2042992,70
1774420512.220304,69
1774420512.2434862,68
1774420512.2521467,66
1774420512.2693079,64
1774420512.2871442,61
1774420512.3064587,59
1774420512.3223913,58
1774420512.3385239,57
1774420512.3543906,56
1774420512.3700662,55
1774420512.388417,53
1774420512.4019766,51
1774420512.418126,48
1774420512.4339693,45
1774420512.4507756,42
1774420512.4661288,40
1774420512.4896798,38
1774420512.5068538,35
1774420512.5177488,33
1774420512.5444944,31
1774420512.5603535,30
1774420512.5759695,28
1774420512.5922716,27
1774420512.6073525,26
1774420512.6182513,26
1774420512.6392374,25
1774420512.6552613,23
1774420512.6704426,22
1774420512.6864831,21
1774420512.7019598,19
1774420512.718395,18
1774420512.7333114,17
1774420512.7495358,19
1774420512.7720797,24
1774420512.7829857,32
1774420512.8005507,41
1774420512.8164268,51
1774420512.8343084,61
1774420512.860826,69
1774420512.8663385,73
1774420512.888557,74
1774420512.8997495,72
1774420512.9248192,70
1774420512.940875,68
1774420512.9546406,66
1774420512.9657931,65
1774420512.989607,64
1774420513.0048292,62
1774420513.020895,59
1774420513.036747,56
1774420513.0495534,54
1774420513.0689042,51
1774420513.085089,48
1774420513.1010337,46
1774420513.1169102,46
1774420513.1337574,45
1774420513.1511729,44
1774420513.1663046,43
1774420513.1958892,42
1774420513.2029617,40
1774420513.2267168,39
1774420513.235628,37
1774420513.2564611,35
1774420513.266192,33
1774420513.2844255,30
1774420513.2996645,29
1774420513.3229296,27
1774420513.338377,26
1774420513.3554194,25
1774420513.3715525,24
1774420513.3836777,23
1774420513.3995044,23
1774420513.4195836,22
1774420513.435562,21
1774420513.4514787,20
1774420513.4678109,19
1774420513.483583,18
1774420513.4996626,16
1774420513.5253193,15
1774420513.5372772,14
1774420513.5568762,13
1774420513.5703423,13
1774420513.587911,16
1774420513.6046884,21
1774420513.6165316,29
1774420513.634093,38
1774420513.6576746,48
1774420513.66581,57
1774420513.6852798,65
1774420513.7014928,69
1774420513.7235172,69
1774420513.7370367,68
1774420513.760031,66
1774420513.7717433,64
1774420513.7897174,62
1774420513.802619,61
1774420513.8187294,60
1774420513.8345916,58
1774420513.850551,56
1774420513.866523,54
1774420513.8831296,51
1774420513.9073822,48
1774420513.9297686,46
1774420513.941528,44
1774420513.95535,43
1774420513.9678428,42
1774420513.9852645,41
1774420514.0055382,40
1774420514.021905,38
1774420514.0413418,37
1774420514.0578742,34
1774420514.0657952,31
1774420514.0905724,28
1774420514.1063502,26
1774420514.1170242,24
1774420514.1362343,20
1774420514.1491287,18
1774420514.1705542,18
1774420514.1864357,16
1774420514.2019556,15
1774420514.2266726,15
1774420514.2380574,14
1774420514.2503414,12
1774420514.2749615,12
1774420514.2855878,11
1774420514.308673,10
1774420514.3193371,9
1774420514.3386607,8
1774420514.3558369,7
1774420514.3699396,6
1774420514.3938663,5
1774420514.4040678,4
1774420514.4216402,4
1774420514.4349072,4
1774420514.4579592,6
1774420514.4692266,12
1774420514.4908826,20
1774420514.5006695,31
1774420514.5207915,41
1774420514.5376203,51
1774420514.551188,59
1774420514.5674305,64
1774420514.5853767,65
1774420514.6029942,64
1774420514.616985,62
1774420514.6325705,60
1774420514.6565876,58
1774420514.6741946,58
1774420514.695114,57
1774420514.707349,56
1774420514.7281456,55
1774420514.740128,53
1774420514.7638156,51
1774420514.771315,48
1774420514.7920282,46
1774420514.801743,45
1774420514.8206875,44
1774420514.833681,43
1774420514.8561594,42
1774420514.8686755,40
1774420514.8831825,39
1774420514.900581,37
1774420514.9159005,34
1774420514.9381056,31
1774420514.9495354,28
1774420514.9677825,26
1774420514.9839761,23
1774420514.9998028,21
1774420515.0265577,19
1774420515.0398836,18
1774420515.0508628,17
1774420515.074139,16
1774420515.0886807,15
1774420515.1100426,14
1774420515.1170335,13
1774420515.1341074,12
1774420515.1527967,11
1774420515.167375,10
1774420515.191589,9
1774420515.2022796,8
1774420515.2224903,7
1774420515.2367628,5
1774420515.2531073,5
1774420515.2662463,4
1774420515.2876277,3
1774420515.3061187,3
1774420515.315781,5
1774420515.336829,9
1774420515.3502445,16
1774420515.367007,25
1774420515.3822813,36
1774420515.399989,45
1774420515.4265323,54
1774420515.4419088,60
1774420515.4565327,62
1774420515.4705122,62
1774420515.484776,60
1774420515.5088832,57
1774420515.5171776,55
1774420515.5387845,53
1774420515.5576322,52
1774420515.5718386,51
1774420515.589745,49
1774420515.6017559,48
1774420515.6219509,46
1774420515.6337607,45
1774420515.652658,43
1774420515.670407,42
1774420515.6847453,42
1774420515.7006562,41
1774420515.7188509,40
1774420515.7366254,40
1774420515.7595992,39
1774420515.7673903,36
1774420515.793231,34
1774420515.8067365,31
1774420515.826543,29
1774420515.8407385,26
1774420515.8568015,24
1774420515.8680902,22
1774420515.8886902,21
