timestamp,bvp
1774419534.019846,30
1774419534.0364754,28
1774419534.053123,26
1774419534.0698724,25
1774419534.0865057,23
1774419534.1031358,22
1774419534.1198843,22
1774419534.1364427,25
1774419534.153149,30
1774419534.169887,37
1774419534.1864824,43
1774419534.2031155,51
1774419534.2198238,57
1774419534.2364645,61
1774419534.253994,61
1774419534.2703671,60
1774419534.286822,59
1774419534.304491,56
1774419534.320453,54
1774419534.3379812,52
1774419534.3557565,50
1774419534.3703606,49
1774419534.3869877,48
1774419534.4031882,47
1774419534.4201686,47
1774419534.4366677,47
1774419534.4536831,47
1774419534.4704852,48
1774419534.4871671,48
1774419534.5039074,48
1774419534.5202787,48
1774419534.5371225,47
1774419534.5536776,46
1774419534.570335,44
1774419534.5872068,43
1774419534.603146,41
1774419534.6200502,40
1774419534.6367254,37
1774419534.653425,35
1774419534.6701744,33
1774419534.6869218,31
1774419534.703775,29
1774419534.7202396,28
1774419534.7370071,26
1774419534.7535338,28
1774419534.7702098,32
1774419534.7951496,38
1774419534.8118665,45
1774419534.8231611,53
1774419534.8390052,61
1774419534.85927,66
1774419534.871981,68
1774419534.8986478,67
1774419534.9066527,65
1774419534.9227252,62
1774419534.9389672,58
1774419534.9648573,55
1774419534.971034,51
1774419534.9872313,48
1774419535.0070944,45
1774419535.0198252,42
1774419535.0365756,40
1774419535.053589,38
1774419535.0701475,37
1774419535.0866807,36
1774419535.1083677,36
1774419535.1198626,36
1774419535.1367626,36
1774419535.1540837,36
1774419535.1777675,36
1774419535.187087,36
1774419535.203871,35
1774419535.2246788,34
1774419535.2408943,33
1774419535.2541306,31
1774419535.2720504,30
1774419535.2887712,29
1774419535.305839,28
1774419535.3210766,27
1774419535.3375633,27
1774419535.3548467,29
1774419535.3702643,34
1774419535.3897498,40
1774419535.4052527,47
1774419535.4252055,54
1774419535.4393644,61
1774419535.464424,65
1774419535.4721441,67
1774419535.4941356,66
1774419535.5042968,63
1774419535.520736,60
1774419535.5387337,57
1774419535.5540848,54
1774419535.573452,52
1774419535.5899138,50
1774419535.605137,49
1774419535.6229358,48
1774419535.640824,48
1774419535.6570432,48
1774419535.671258,47
1774419535.689062,47
1774419535.7037432,46
1774419535.72017,44
1774419535.7391317,42
1774419535.7574697,40
1774419535.7746196,39
1774419535.795312,37
1774419535.8133976,35
1774419535.8210733,34
1774419535.8455284,32
1774419535.856452,30
1774419535.8784587,28
1774419535.8893263,26
1774419535.9118524,25
1774419535.9284236,27
1774419535.9456563,31
1774419535.9570909,38
1774419535.9760163,45
1774419535.9918547,53
1774419536.0080054,60
1774419536.0239623,65
1774419536.0366843,67
1774419536.0539067,67
1774419536.0698216,65
1774419536.0927844,62
1774419536.103258,59
1774419536.1285582,56
1774419536.1451905,52
1774419536.160557,49
1774419536.1786494,47
1774419536.186358,44
1774419536.2052162,42
1774419536.2283854,40
1774419536.2375178,40
1774419536.253038,39
1774419536.272106,39
1774419536.2937415,38
1774419536.308971,37
1774419536.330258,35
1774419536.3419752,33
1774419536.361995,31
1774419536.3771763,29
1774419536.3887048,27
1774419536.4050076,24
1774419536.4204476,22
1774419536.437693,19
1774419536.4621148,17
1774419536.4738116,18
1774419536.496028,20
1774419536.5050845,25
1774419536.5302262,32
1774419536.537862,40
1774419536.564281,46
1774419536.578644,51
1774419536.5903192,54
1774419536.6116595,53
1774419536.6232116,51
1774419536.63887,48
1774419536.656362,45
1774419536.6712914,41
1774419536.6900408,40
1774419536.7063057,37
1774419536.7289436,35
1774419536.7451415,34
1774419536.761773,33
1774419536.7776742,33
1774419536.7899315,33
1774419536.8100057,34
1774419536.8289194,34
1774419536.8419187,35
1774419536.8628042,34
1774419536.8744617,34
1774419536.8948085,33
1774419536.910519,32
1774419536.921228,31
1774419536.9369192,30
1774419536.953509,29
1774419536.9702427,29
1774419536.9869697,28
1774419537.0066686,27
1774419537.0199263,27
1774419537.0371995,29
1774419537.0536711,34
1774419537.072406,40
1774419537.0868838,46
1774419537.1118426,54
1774419537.1272275,61
1774419537.1381764,66
1774419537.1583633,68
1774419537.1756957,68
1774419537.1876416,66
1774419537.2070274,64
1774419537.2289338,61
1774419537.2417789,58
1774419537.2546146,55
1774419537.2700794,52
1774419537.28807,51
1774419537.305288,49
1774419537.3282385,47
1774419537.338311,46
1774419537.354613,45
1774419537.3729615,44
1774419537.3892808,42
1774419537.4052322,42
1774419537.4196362,41
1774419537.4371152,40
1774419537.4546902,39
1774419537.4788103,37
1774419537.4912298,35
1774419537.5138524,33
1774419537.5284169,31
1774419537.5489037,29
1774419537.5578372,28
1774419537.5719247,26
1774419537.59502,25
1774419537.609824,24
1774419537.6234305,25
1774419537.6409276,29
1774419537.658952,34
1774419537.6708148,40
1774419537.6930416,47
1774419537.7089963,54
1774419537.7213788,59
1774419537.740972,62
1774419537.7538767,62
1774419537.7729971,60
1774419537.7863402,57
1774419537.8040807,55
1774419537.8201098,52
1774419537.8390977,50
1774419537.8578312,48
1774419537.8824458,46
1774419537.8950305,44
1774419537.9139109,43
1774419537.9287102,42
1774419537.9452484,41
1774419537.9597504,40
1774419537.9778337,40
1774419537.9960654,40
1774419538.0110545,39
1774419538.0274572,38
1774419538.0383208,37
1774419538.053665,35
1774419538.0792563,33
1774419538.0911057,31
1774419538.1071215,30
1774419538.1231139,28
1774419538.1391094,27
1774419538.155135,25
1774419538.172037,24
1774419538.1871996,23
1774419538.2031553,22
1774419538.2233639,22
1774419538.2458146,24
1774419538.2619708,28
1774419538.2783272,33
1774419538.2950623,40
1774419538.3123991,46
1774419538.3286643,52
1774419538.3456259,56
1774419538.353777,58
1774419538.3783443,57
1774419538.3955066,56
1774419538.4110308,53
1774419538.4269416,51
1774419538.438779,48
1774419538.4546883,46
1774419538.4783227,44
1774419538.4900928,42
1774419538.5061224,41
1774419538.5219119,40
1774419538.5450532,39
1774419538.5537379,39
1774419538.5703523,38
1774419538.5862277,37
1774419538.6177194,37
1774419538.6200564,36
1774419538.6489468,35
1774419538.6619234,34
1774419538.6818252,32
1774419538.6952372,30
1774419538.7138479,29
1774419538.7285757,27
1774419538.747187,26
1774419538.7620885,24
1774419538.777892,23
1774419538.7939498,22
1774419538.8098574,21
1774419538.8253531,19
1774419538.8414488,18
1774419538.8557806,17
1774419538.8744335,17
1774419538.8893402,19
1774419538.9135914,24
1774419538.921547,29
1774419538.9375405,36
1774419538.9536169,41
1774419538.985517,47
1774419538.986246,50
1774419539.01633,51
1774419539.0218992,50
1774419539.0378582,48
1774419539.0528605,46
1774419539.071677,44
1774419539.0951552,42
1774419539.1118402,40
1774419539.1201634,39
1774419539.1459131,38
1774419539.1603794,37
1774419539.1864915,36
1774419539.186573,35
1774419539.21221,34
1774419539.226723,34
1774419539.2442572,33
1774419539.2532508,33
1774419539.2835903,32
1774419539.288116,31
1774419539.3116713,30
1774419539.3217723,28
1774419539.3514826,27
1774419539.3534212,25
1774419539.3785741,24
1774419539.3861465,23
1774419539.4154003,21
1774419539.4197783,20
1774419539.4446273,19
1774419539.4587114,19
1774419539.480123,18
1774419539.495276,17
1774419539.5115368,17
1774419539.5274646,16
1774419539.5436711,16
1774419539.5594227,15
1774419539.5760138,16
1774419539.5927954,19
1774419539.6093903,23
1774419539.6221035,28
1774419539.6395795,34
1774419539.6609638,40
1774419539.6714804,43
1774419539.687488,45
1774419539.7172785,45
1774419539.7198884,44
1774419539.7389364,45
1774419539.7541196,42
1774419539.778378,40
1774419539.7907004,38
1774419539.8051653,36
1774419539.8280795,34
1774419539.84758,32
1774419539.8570786,31
1774419539.8749788,29
1774419539.894769,28
1774419539.9098823,27
1774419539.919685,27
1774419539.941884,26
1774419539.9578269,24
1774419539.9738853,22
1774419539.9961562,20
1774419540.0062723,17
1774419540.0220702,14
1774419540.0378606,10
1774419540.053958,8
1774419540.069994,5
1774419540.0904791,2
1774419540.345209,4
1774419540.3535998,15
1774419540.382538,28
1774419540.3935635,39
1774419540.416935,47
1774419540.4279294,50
1774419540.441831,50
1774419540.4557285,47
1774419540.4810789,42
1774419540.4918492,38
1774419540.5091705,34
1774419540.5198977,30
1774419540.5395205,26
1774419540.556597,23
1774419540.5719402,21
1774419540.5890036,20
1774419540.6084707,18
1774419540.6246145,18
1774419540.6562037,18
1774419540.6562793,18
1774419540.6724505,18
1774419540.6949844,18
1774419540.7104888,17
1774419540.720544,16
1774419540.7396317,14
1774419540.7563806,12
1774419540.7810795,10
1774419540.7939003,8
1774419540.8107471,6
1774419540.8219154,4
1774419540.8367968,2
1774419541.0074387,5
1774419541.0194643,14
1774419541.0384583,25
1774419541.0545626,36
1774419541.0779998,45
1774419541.0864408,51
1774419541.106814,53
1774419541.1248631,52
1774419541.1459503,48
1774419541.153908,44
1774419541.1803176,40
1774419541.192244,36
1774419541.2125826,33
1774419541.226178,30
1774419541.2443259,28
1774419541.2589357,26
1774419541.2913802,25
1774419541.2916253,25
1774419541.3065147,25
1774419541.3225625,25
1774419541.3398416,26
1774419541.3554087,26
1774419541.3791924,26
1774419541.3867488,25
1774419541.4031775,23
1774419541.4194794,21
1774419541.4429336,19
1774419541.4618194,17
1774419541.4791484,15
1774419541.4931343,13
1774419541.5072522,11
1774419541.527339,10
1774419541.545373,9
1774419541.5617478,8
1774419541.577467,7
1774419541.5937066,7
1774419541.6106598,6
1774419541.622759,6
1774419541.6427991,7
1774419541.6611428,12
1774419541.6748257,20
1774419541.689262,30
1774419541.70515,41
1774419541.722791,53
1774419541.7375486,62
1774419541.7548466,68
1774419541.773845,69
1774419541.7871327,67
1774419541.8028696,62
1774419541.819356,58
1774419541.8450186,53
1774419541.8617432,49
1774419541.8712323,46
1774419541.8892365,44
1774419541.9075756,42
1774419541.9241142,40
1774419541.9382157,40
1774419541.9620419,39
1774419541.993779,39
1774419541.9937818,38
1774419542.0065634,37
1774419542.0203407,37
1774419542.0370605,36
1774419542.0541508,35
1774419542.0749798,33
1774419542.0861065,31
1774419542.1069288,29
1774419542.1229641,27
1774419542.1397493,25
1774419542.1549132,22
1774419542.1709602,20
1774419542.1869016,19
1774419542.2067714,17
1774419542.2193367,16
1774419542.236213,15
1774419542.2650163,14
1774419542.2787302,13
1774419542.2954645,13
1774419542.3070912,15
1774419542.3233638,20
1774419542.3442683,29
1774419542.3619537,40
1774419542.3699403,51
1774419542.3937464,63
1774419542.4101114,73
1774419542.4261165,78
1774419542.4420302,78
1774419542.4578347,76
1774419542.4740705,72
1774419542.486958,68
1774419542.5049584,64
1774419542.5210345,60
1774419542.5373278,58
1774419542.5542002,56
1774419542.5798864,54
1774419542.5910943,52
1774419542.605235,50
1774419542.6228693,49
1774419542.6462514,47
1774419542.6579154,46
1774419542.6791232,45
1774419542.691193,44
1774419542.712245,43
1774419542.729474,42
1774419542.7447774,40
1774419542.7638433,39
1774419542.7768278,36
1774419542.78601,34
1774419542.8091433,31
1774419542.8207426,29
1774419542.8409054,26
1774419542.8578875,24
1774419542.8720598,23
1774419542.8898633,21
1774419542.902945,20
1774419542.9218638,19
1774419542.9451118,18
1774419542.953785,17
1774419542.978753,17
1774419542.986006,18
1774419543.0033536,22
1774419543.0229857,31
1774419543.0391052,40
1774419543.062273,52
1774419543.071812,64
1774419543.0884354,75
1774419543.1103756,81
1774419543.1263587,82
1774419543.1424248,80
1774419543.1584094,77
1774419543.1765027,72
1774419543.1893232,69
1774419543.2053523,65
1774419543.221636,63
1774419543.2374558,61
1774419543.253699,59
1774419543.2708783,57
1774419543.2945585,55
1774419543.3029969,53
1774419543.3193963,51
1774419543.3421102,49
1774419543.3546665,49
1774419543.3810856,48
1774419543.3894422,46
1774419543.4116867,45
1774419543.4283664,43
1774419543.4442945,40
1774419543.4605074,39
1774419543.4697857,36
1774419543.4913769,33
1774419543.5074542,30
1774419543.5251148,28
1774419543.5390737,26
1774419543.5552819,24
1774419543.5693347,22
1774419543.5937283,21
1774419543.6033618,20
1774419543.6238017,19
1774419543.6461782,18
1774419543.657862,17
1774419543.6732152,17
1774419543.6902616,21
1774419543.7117267,28
1774419543.719562,37
1774419543.737468,47
1774419543.7539725,59
1774419543.7715068,70
1774419543.7895706,76
1774419543.8025954,80
1774419543.8219745,79
1774419543.8359566,76
1774419543.8541338,72
1774419543.879825,68
1774419543.8900294,64
1774419543.911656,62
1774419543.922376,59
1774419543.9410326,57
1774419543.9540653,56
1774419543.9756823,53
1774419543.985963,51
1774419544.0117548,50
1774419544.0222523,48
1774419544.037069,47
1774419544.0568755,46
1774419544.080371,45
1774419544.0898163,43
1774419544.1120627,41
1774419544.1223526,40
1774419544.1445117,37
1774419544.1605172,35
1774419544.1768022,32
1774419544.1905496,29
1774419544.2025733,27
1774419544.2247086,25
1774419544.2405612,23
1774419544.2544234,21
1774419544.27636,20
1774419544.2880495,18
1774419544.3086526,17
1774419544.3200657,17
1774419544.3361993,16
1774419544.3564012,15
1774419544.3712153,14
1774419544.3880036,14
1774419544.408885,16
1774419544.4221282,22
1774419544.4450257,31
1774419544.4575863,42
1774419544.4756007,55
1774419544.4899468,67
1774419544.5042675,75
1774419544.5280735,79
1774419544.537956,79
1774419544.5568242,76
1774419544.5701978,72
1774419544.5919945,68
1774419544.6026049,64
1774419544.6230483,61
1774419544.6376185,59
1774419544.656182,57
1774419544.672315,55
1774419544.689734,53
1774419544.7027004,52
1774419544.7232962,50
1774419544.736069,48
1774419544.7681336,47
1774419544.7796874,46
1774419544.795142,45
1774419544.8120637,43
1774419544.8269866,42
1774419544.846224,40
1774419544.8571126,38
1774419544.880027,36
1774419544.889758,33
1774419544.9123657,30
1774419544.9280558,28
1774419544.9428568,25
1774419544.9599714,23
1774419544.969896,21
1774419544.9900494,19
1774419545.0083585,18
1774419545.020256,17
1774419545.036164,16
1774419545.056256,15
1774419545.0691943,14
1774419545.0866103,13
1774419545.1035118,13
1774419545.1213732,11
1774419545.1368153,10
1774419545.1673803,11
1774419545.1786242,16
1774419545.1977541,25
1774419545.2140021,36
1774419545.2196171,48
1774419545.2461684,60
1774419545.2620823,70
1774419545.2792432,74
1774419545.2941165,74
1774419545.3089883,72
1774419545.3259747,67
1774419545.3391283,63
1774419545.3581161,60
1774419545.369855,58
1774419545.3896477,57
1774419545.403806,56
1774419545.421656,55
1774419545.4376736,55
1774419545.4590945,54
1774419545.469604,53
1774419545.4906437,52
1774419545.5120077,51
1774419545.5326858,51
1774419545.5471718,50
1774419545.5607069,50
1774419545.5747857,48
1774419545.588163,46
1774419545.6126778,43
1774419545.6252851,40
1774419545.6391232,38
1774419545.6571379,34
1774419545.676089,31
1774419545.6982841,28
1774419545.7059674,25
1774419545.7242863,23
1774419545.739563,21
1774419545.7562754,19
1774419545.77166,18
1774419545.787794,16
1774419545.8038847,15
1774419545.8197477,13
1774419545.8361254,12
1774419545.867786,11
1774419545.869176,10
1774419545.8971765,9
1774419545.9117334,8
1774419545.929834,12
1774419545.940946,20
1774419545.9635715,31
1774419545.9785874,43
1774419545.993962,57
1774419546.0085778,70
1774419546.0195084,79
1774419546.036255,83
1774419546.0530956,83
1774419546.0747635,81
1774419546.088741,77
1774419546.1031744,73
1774419546.1225584,69
1774419546.1387894,66
1774419546.1536827,63
1774419546.170275,61
1774419546.1865482,59
1774419546.2025278,57
1774419546.230023,55
1774419546.2359278,53
1774419546.2626593,51
1774419546.2784553,49
1774419546.2950315,47
1774419546.3065805,45
1774419546.3299036,42
1774419546.335853,40
1774419546.3604727,38
1774419546.3752885,35
1774419546.3918679,32
1774419546.4114347,29
1774419546.4243987,25
1774419546.439346,22
1774419546.4573002,20
1774419546.4785664,17
1774419546.4892719,15
1774419546.505535,13
1774419546.521321,12
1774419546.537369,10
1774419546.5533054,9
1774419546.5691376,8
1774419546.5866714,7
1774419546.6044235,6
1774419546.622875,5
1774419546.6461499,8
1774419546.6637383,15
1774419546.6800952,26
1774419546.688756,38
1774419546.7046387,51
1774419546.7283256,64
1774419546.7428014,72
1774419546.75415,77
1774419546.7783525,77
1774419546.7928445,74
1774419546.808168,71
1774419546.822818,66
1774419546.8418157,63
1774419546.8618145,60
1774419546.8711946,57
1774419546.886912,55
1774419546.902911,53
1774419546.9284568,51
1774419546.9438355,49
1774419546.9613807,48
1774419546.972298,47
1774419546.9888353,46
1774419547.0024285,45
1774419547.0222971,44
1774419547.0368261,43
1774419547.0608284,41
1774419547.0691078,40
1774419547.0864024,37
1774419547.1107957,34
1774419547.125978,30
1774419547.1362453,27
1774419547.1590502,25
1774419547.1707766,23
1774419547.1909528,20
1774419547.2029388,18
1774419547.2230556,17
1774419547.2390454,15
1774419547.2550623,14
1774419547.2713304,13
1774419547.2871015,12
1774419547.3030477,11
1774419547.3192477,12
1774419547.3382013,18
1774419547.3615127,27
1774419547.3700593,39
1774419547.3951962,51
1774419547.4024196,65
1774419547.428606,75
1774419547.4364781,81
1774419547.4620092,82
1774419547.4786427,80
1774419547.491506,75
1774419547.5026495,70
1774419547.5263703,65
1774419547.5451748,60
1774419547.5583825,56
1774419547.5742428,53
1774419547.586159,50
1774419547.6063194,48
1774419547.625471,46
1774419547.6396358,44
1774419547.653163,43
1774419547.6693847,43
1774419547.7015905,42
1774419547.706591,41
1774419547.725978,40
1774419547.738963,39
1774419547.7596607,37
1774419547.7742963,34
1774419547.7873294,31
1774419547.8023868,28
1774419547.8286383,25
1774419547.8450768,22
1774419547.8528714,20
1774419547.871933,18
1774419547.8926911,16
1774419547.913237,14
1774419547.9304595,13
1774419547.9388602,11
1774419547.9565241,10
1774419547.9722886,10
1774419547.9886832,14
1774419548.0047152,21
1774419548.019841,32
1774419548.0365007,44
1774419548.0666099,58
1774419548.0696905,70
1774419548.086612,78
1774419548.1058562,82
1774419548.1283126,81
1774419548.1454766,77
1774419548.158775,73
1774419548.1777554,69
1774419548.188639,64
1774419548.202369,61
1774419548.2256856,57
1774419548.2417414,54
1774419548.263264,51
1774419548.2738233,49
1774419548.2899504,47
1774419548.305687,45
1774419548.3195596,44
1774419548.3368435,43
1774419548.3614292,42
1774419548.3695564,41
1774419548.3954048,40
1774419548.4098563,38
1774419548.428599,36
1774419548.4429588,33
1774419548.453074,30
1774419548.4738085,27
1774419548.488677,24
1774419548.5084617,22
1774419548.5286598,19
1774419548.5381517,18
1774419548.5601022,16
1774419548.5767775,14
1774419548.5965266,13
1774419548.602551,11
1774419548.6235142,11
1774419548.6361158,12
1774419548.6570268,18
1774419548.6698632,27
1774419548.6954517,39
1774419548.7115304,51
1774419548.7206988,64
1774419548.7364774,75
1774419548.7641191,81
1774419548.7776954,83
1774419548.795818,81
1774419548.8149328,77
1774419548.8309069,73
1774419548.8426437,69
1774419548.854167,65
1774419548.8784475,63
1774419548.8946428,60
1774419548.9087894,58
1774419548.919722,56
1774419548.9367478,54
1774419548.9588091,52
1774419548.9701488,50
1774419548.989505,48
1774419549.011719,46
1774419549.0227695,45
1774419549.0375047,43
1774419549.0547605,41
1774419549.0698228,39
1774419549.0858006,36
1774419549.1148014,33
1774419549.1224778,30
1774419549.1374,27
1774419549.1616957,24
1774419549.177944,22
1774419549.1866844,19
1774419549.2120657,17
1774419549.2277746,15
1774419549.2419126,14
1774419549.2576497,12
1774419549.271304,11
1774419549.2907803,10
1774419549.3059423,12
1774419549.3230605,16
1774419549.3392174,25
1774419549.352442,36
1774419549.3712373,47
1774419549.387226,60
1774419549.4028146,70
1774419549.4191902,76
1774419549.4355955,78
1774419549.4649675,76
1774419549.479062,73
1774419549.488065,69
1774419549.5116796,66
1774419549.5192418,63
1774419549.545776,61
1774419549.561897,58
1774419549.5794234,56
1774419549.5952563,53
1774419549.6115477,51
1774419549.6211174,48
1774419549.643334,46
1774419549.6587284,44
1774419549.67377,43
1774419549.6892688,41
1774419549.707505,40
1774419549.721239,39
1774419549.7382524,36
1774419549.7547164,33
1774419549.769927,30
1774419549.796415,27
1774419549.8023546,24
1774419549.8337011,21
1774419549.8498237,19
1774419549.8555415,16
1774419549.8776972,15
1774419549.8913949,13
1774419549.9041123,11
1774419549.9286475,10
1774419549.944729,9
1774419549.960711,8
1774419549.976753,7
1774419549.9869316,6
1774419550.0116827,6
1774419550.0248957,9
1774419550.0372064,17
1774419550.0568871,27
1774419550.0747056,38
1774419550.0887876,50
1774419550.108755,61
1774419550.1207366,68
1774419550.13702,70
1774419550.1529844,69
1774419550.170827,65
1774419550.195097,61
1774419550.2078254,57
1774419550.2285206,54
1774419550.2473552,51
1774419550.2645257,48
1774419550.280557,46
1774419550.2886286,44
1774419550.3100567,42
1774419550.3197887,40
1774419550.3391912,39
1774419550.3522496,37
1774419550.3766441,36
1774419550.3918157,35
1774419550.4055405,33
1774419550.4247322,31
1774419550.4396572,29
1774419550.4580855,27
1774419550.4716322,24
1774419550.48955,22
1774419550.5026948,19
1774419550.5198865,17
1774419550.544538,15
1774419550.558418,12
1774419550.5774899,11
1774419550.5884404,9
1774419550.613113,7
1774419550.6190858,6
1774419550.6452997,5
1774419550.6579351,4
1774419550.6786215,3
1774419550.6931863,3
1774419550.7050676,2
1774419550.7250986,2
1774419550.7390347,6
1774419550.7570853,13
1774419550.7730052,22
1774419550.7855656,33
1774419550.8176587,43
1774419550.820103,52
1774419550.8363254,57
1774419550.8566034,57
1774419550.8726952,55
1774419550.8962357,52
1774419550.9037101,48
1774419550.920864,44
1774419550.9407253,41
1774419550.9562788,39
1774419550.9690413,37
1774419550.9857738,36
1774419551.002702,35
1774419551.0218542,34
1774419551.0363154,32
1774419551.0560758,31
1774419551.0815864,30
1774419551.0906174,28
1774419551.1073055,27
1774419551.1205027,26
1774419551.1426501,24
1774419551.1553907,23
1774419551.1711752,21
1774419551.191014,19
1774419551.2035527,16
1774419551.221713,14
1774419551.2453532,12
1774419551.2615733,10
1774419551.2748728,8
1774419551.2982411,6
1774419551.313846,5
1774419551.3301528,4
1774419551.336196,3
1774419551.3594885,3
1774419551.3784785,2
1774419551.3942652,2
1774419551.4093342,1
1774419551.4622228,2
1774419551.4785635,8
1774419551.4877326,16
1774419551.5035825,26
1774419551.52224,37
1774419551.5381272,46
1774419551.5541947,53
1774419551.5705686,56
1774419551.5862443,55
1774419551.6104262,51
1774419551.623368,47
1774419551.649395,43
1774419551.6638277,40
1774419551.6688561,39
1774419551.6858892,37
1774419551.7042255,35
1774419551.7302022,34
1774419551.7462025,33
1774419551.756487,31
1774419551.7730198,30
1774419551.7885947,29
1774419551.8123245,28
1774419551.8188086,28
1774419551.8420846,27
1774419551.85585,26
1774419551.8756697,25
1774419551.8899283,23
1774419551.908063,21
1774419551.9221334,19
1774419551.9372644,17
1774419551.953971,15
1774419551.9797146,13
1774419551.9854858,11
1774419552.0180168,9
1774419552.0188613,8
1774419552.0374024,7
1774419552.0540664,6
1774419552.0744393,5
1774419552.0855207,5
1774419552.1038322,4
1774419552.1207397,4
1774419552.140074,3
1774419552.1556869,3
1774419552.1768348,3
1774419552.1857677,5
1774419552.2086487,10
1774419552.2187996,19
1774419552.240232,29
1774419552.256592,40
1774419552.272429,50
1774419552.2883306,58
1774419552.3034503,62
1774419552.3206518,61
1774419552.3411207,58
1774419552.356923,54
1774419552.378214,50
1774419552.395068,46
1774419552.4026427,44
1774419552.4289725,42
1774419552.4451077,40
1774419552.4533193,39
1774419552.4733946,38
1774419552.4908793,36
1774419552.5030942,35
1774419552.5246484,34
1774419552.5361028,33
1774419552.553937,33
1774419552.573608,32
1774419552.5898938,31
1774419552.605718,30
1774419552.6216772,29
1774419552.6376283,27
1774419552.6594884,25
1774419552.66979,23
1774419552.6854534,21
1774419552.7055707,19
1774419552.7257779,18
1774419552.7455368,16
1774419552.7561817,15
1774419552.7784052,14
1774419552.7964048,13
1774419552.8046613,12
1774419552.8286054,12
1774419552.841699,11
1774419552.8598342,11
1774419552.8768036,11
1774419552.8925958,10
1774419552.9086807,10
1774419552.924715,11
1774419552.9378684,16
1774419552.9543674,24
1774419552.9722705,35
1774419552.9858878,46
1774419553.0047138,57
1774419553.018782,66
1774419553.0366879,71
1774419553.0526004,71
1774419553.0690632,68
1774419553.088662,64
1774419553.1068347,59
1774419553.1285672,54
1774419553.1452966,51
1774419553.1610334,48
1774419553.1733317,46
1774419553.1961102,45
1774419553.2102242,43
1774419553.228163,42
1774419553.2430217,41
1774419553.2577345,40
1774419553.2693777,40
1774419553.2864807,39
1774419553.3028123,39
1774419553.32254,37
1774419553.3385084,36
1774419553.353931,34
1774419553.3703573,32
1774419553.3863797,29
1774419553.402262,27
1774419553.4187648,24
1774419553.4452403,22
1774419553.4619415,20
1774419553.482503,18
1774419553.4991815,17
1774419553.5144248,16
1774419553.52838,15
1774419553.546245,15
1774419553.5622637,14
1774419553.5785155,14
1774419553.5891373,13
1774419553.609726,13
1774419553.6192966,12
1774419553.64228,12
1774419553.658291,14
1774419553.6783233,20
1774419553.689134,29
1774419553.705277,40
1774419553.7209027,51
1774419553.7369423,63
1774419553.7570832,72
1774419553.7784941,76
1774419553.786079,76
1774419553.8178263,74
1774419553.8248076,69
1774419553.8474216,65
1774419553.8623254,61
1774419553.8693275,57
1774419553.8898618,55
1774419553.9115388,53
1774419553.9211257,52
1774419553.943532,50
1774419553.9595706,49
1774419553.9754071,48
1774419553.9895012,47
1774419554.0072439,46
1774419554.0235693,46
1774419554.0365834,45
1774419554.0553632,43
1774419554.0707655,42
1774419554.0950062,40
1774419554.1037164,38
1774419554.1248114,36
1774419554.137568,33
1774419554.16343,31
1774419554.1775498,29
1774419554.1856482,26
1774419554.2046366,25
1774419554.2188432,23
1774419554.2451706,22
1774419554.2546256,21
1774419554.2769506,20
1774419554.2929783,19
1774419554.3088784,19
1774419554.3285782,18
1774419554.341059,17
1774419554.3538408,16
1774419554.372927,17
1774419554.3876765,21
1774419554.4050155,28
1774419554.4192233,39
1774419554.4358642,50
1774419554.452675,62
1774419554.4689264,73
1774419554.4861436,80
1774419554.5168939,83
1774419554.528661,81
1774419554.5453424,78
1774419554.556083,73
1774419554.5707328,69
1774419554.5853484,65
1774419554.6096392,62
1774419554.6186543,60
1774419554.6368315,59
1774419554.6605575,57
1774419554.6770785,56
1774419554.687893,54
1774419554.7058744,53
1774419554.7187877,52
1774419554.7403438,50
1774419554.7531652,49
1774419554.77232,48
1774419554.7859492,47
1774419554.814219,45
1774419554.819049,43
1774419554.8374588,41
1774419554.855783,40
1774419554.8687463,37
1774419554.900224,35
1774419554.9020545,33
1774419554.923258,30
1774419554.9385614,29
1774419554.9537897,26
1774419554.9785094,25
1774419554.9883595,24
1774419555.0054345,23
1774419555.0188394,22
1774419555.0361943,22
1774419555.0522823,21
1774419555.0697825,20
1774419555.097019,22
1774419555.1067085,27
1774419555.1194649,35
1774419555.1384616,46
1774419555.1618145,59
1774419555.1708488,72
1774419555.1897361,82
1774419555.206793,88
1774419555.2284198,90
1774419555.2456317,88
1774419555.252042,85
1774419555.2785628,81
1774419555.290774,77
1774419555.3059428,74
1774419555.3233829,71
1774419555.3454309,69
1774419555.3558953,68
1774419555.377796,66
1774419555.3856792,65
1774419555.4094794,64
1774419555.4186642,62
1774419555.4357555,61
1774419555.4519877,61
1774419555.4785054,59
1774419555.4950008,58
1774419555.5055494,56
1774419555.5186865,54
1774419555.537817,51
1774419555.5560842,48
1774419555.5778234,44
1774419555.5860364,41
1774419555.612999,39
1774419555.6233234,36
1774419555.653281,33
1774419555.654037,31
1774419555.672277,29
1774419555.6881466,27
1774419555.7044792,25
1774419555.7222514,23
1774419555.7372231,22
1774419555.7537925,19
1774419555.7702088,17
1774419555.7859094,16
1774419555.8161561,17
1774419555.8219283,23
1774419555.8438532,32
1774419555.852051,43
1774419555.8699126,57
1774419555.886489,71
1774419555.9109032,81
1774419555.928133,87
1774419555.945904,89
1774419555.9587193,87
1774419555.9771035,83
1774419555.9898627,80
1774419556.0124607,76
1774419556.0233145,73
1774419556.0356412,71
1774419556.053322,69
1774419556.0763566,67
1774419556.0900767,65
1774419556.1083949,64
1774419556.124694,62
1774419556.1404054,61
1774419556.1556525,60
1774419556.172329,58
1774419556.1859229,57
1774419556.2040348,55
1774419556.2196078,54
1774419556.2354605,51
1774419556.2598102,49
1774419556.268745,47
1774419556.2928414,45
1774419556.3078144,42
1774419556.3297093,39
1774419556.3458416,35
1774419556.3586118,31
1774419556.370529,26
1774419556.3949404,23
1774419556.4026787,19
1774419556.4274304,17
1774419556.443336,16
1774419556.4596028,15
1774419556.4725468,14
1774419556.4899902,13
1774419556.5116355,14
1774419556.5233536,19
1774419556.5395327,29
1774419556.5555372,40
1774419556.5714316,54
1774419556.585741,69
1774419556.6036284,81
1774419556.6186204,89
1774419556.6448164,92
1774419556.6563818,91
1774419556.669854,88
1774419556.6853993,84
1774419556.7086005,80
1774419556.7237039,77
1774419556.7464137,74
1774419556.7626073,71
1774419556.7707915,69
1774419556.7945309,67
1774419556.8036182,66
1774419556.8265216,64
1774419556.8424845,63
1774419556.8545988,61
1774419556.873981,61
1774419556.8890786,60
1774419556.9061515,59
1774419556.9222515,57
1774419556.9383087,55
1774419556.9541097,52
1774419556.969506,49
1774419556.9855213,45
1774419557.0060904,42
1774419557.0185497,40
1774419557.0358555,37
1774419557.0556228,34
1774419557.0786352,32
1774419557.088476,30
1774419557.1018617,28
1774419557.1208658,27
1774419557.1453001,26
1774419557.1615946,25
1774419557.1765366,25
1774419557.1925495,28
1774419557.2087455,35
1774419557.224605,45
1774419557.2404923,58
1774419557.2566028,73
1774419557.2719085,88
1774419557.289292,99
1774419557.3133576,105
1774419557.3195713,107
1774419557.335514,105
1774419557.3590875,101
1774419557.3775198,96
1774419557.3854074,65
1774419557.4148793,63
1774419557.430486,61
1774419557.4451766,59
1774419557.452693,57
1774419557.478464,55
1774419557.4944937,54
1774419557.5047784,53
1774419557.5255876,52
1774419557.5416348,51
1774419557.5611875,50
1774419557.5750685,49
1774419557.589552,47
1774419557.6055274,46
1774419557.6223512,44
1774419557.6375186,42
1774419557.653583,40
1774419557.6696448,38
1774419557.6855612,36
1774419557.7109034,34
1774419557.723253,32
1774419557.7452865,31
1774419557.7538764,30
1774419557.7742045,29
1774419557.7894912,28
1774419557.8086586,27
1774419557.8195035,27
1774419557.8430262,27
1774419557.8604615,29
1774419557.8761554,33
1774419557.8921404,39
1774419557.9018133,45
1774419557.9240348,53
1774419557.9399762,60
1774419557.9552226,64
1774419557.9714007,66
1774419557.9943495,66
1774419558.0033083,65
1774419558.0196934,63
1774419558.0360343,61
1774419558.057276,59
1774419558.0762115,57
1774419558.0899186,56
1774419558.111873,54
1774419558.122374,52
1774419558.150079,51
1774419558.154588,50
1774419558.1783464,48
1774419558.1965616,48
1774419558.2019832,47
1774419558.2272072,47
1774419558.2395344,46
1774419558.2594573,45
1774419558.2689738,44
1774419558.2914684,42
1774419558.302167,41
1774419558.3202207,40
1774419558.338323,38
1774419558.3592205,36
1774419558.3743117,35
1774419558.387363,34
1774419558.4145925,32
1774419558.4187474,31
1774419558.4362187,30
1774419558.4631212,29
1774419558.4716556,29
1774419558.489559,30
1774419558.5134833,33
1774419558.523263,38
1774419558.5408375,43
1774419558.5625277,51
1774419558.5742972,59
1774419558.591893,65
1774419558.603042,68
1774419558.6225326,70
1774419558.6409628,69
1774419558.6521258,68
1774419558.6732361,66
1774419558.68928,65
1774419558.7052019,63
1774419558.7188513,62
1774419558.7362752,61
1774419558.7678564,59
1774419558.7685041,58
1774419558.794453,56
1774419558.8116167,55
1774419558.82856,53
1774419558.8390133,52
1774419558.8579018,51
1774419558.869889,49
1774419558.890197,48
1774419558.9077623,47
1774419558.9216857,45
1774419558.9431202,44
1774419558.959076,42
1774419558.9753783,40
1774419558.9901125,39
1774419559.0018115,37
1774419559.0215726,35
1774419559.036501,33
1774419559.052384,31
1774419559.069494,30
1774419559.0982528,28
1774419559.1074705,27
1774419559.128966,27
1774419559.1355567,29
1774419559.1599374,33
1774419559.1849227,38
1774419559.1853259,44
1774419559.2119431,52
1774419559.2184289,59
1774419559.2446966,64
1774419559.2586977,68
1774419559.2761314,68
1774419559.2921238,67
1774419559.3087811,66
1774419559.3241928,64
1774419559.338209,62
1774419559.3561664,60
1774419559.3712757,58
1774419559.393561,56
1774419559.404439,54
1774419559.4285274,52
1774419559.4364603,50
1774419559.4521556,48
1774419559.4688249,47
1774419559.4851327,45
1774419559.5158186,44
1774419559.528058,43
1774419559.5461352,41
1774419559.555718,40
1774419559.5780637,39
1774419559.596298,37
1774419559.6123679,35
1774419559.6231062,33
1774419559.6449776,31
1774419559.6592069,29
1774419559.679058,27
1774419559.6911345,26
1774419559.7071402,25
1774419559.7231479,24
1774419559.7389107,23
1774419559.7550495,22
1774419559.7699618,21
1774419559.7991674,21
1774419559.8034172,20
1774419559.8191338,22
1774419559.8351164,26
1774419559.857675,31
1774419559.8692632,39
1774419559.8977408,45
1774419559.9117088,52
1774419559.9191513,57
1774419559.9351346,60
1774419559.954994,60
1774419559.9787114,59
1774419559.9932096,57
1774419560.013074,55
1774419560.0258818,54
1774419560.0404458,53
1774419560.0567093,51
1774419560.075025,50
1774419560.0942645,49
1774419560.1072314,47
1774419560.1232464,45
1774419560.1386132,43
1774419560.1544418,42
1774419560.170269,40
1774419560.1865516,40
1774419560.2024074,39
1774419560.2315686,38
1774419560.2355812,37
1774419560.2655404,35
1774419560.278377,33
1774419560.2871456,31
1774419560.3021147,29
1774419560.3289237,28
1774419560.345056,26
1774419560.3619604,24
1774419560.3784108,23
1774419560.3934436,21
1774419560.4029393,20
1774419560.4197676,19
1774419560.4402864,19
1774419560.4567556,18
1774419560.4712255,17
1774419560.4873056,17
1774419560.5056207,16
1774419560.5324306,15
1774419560.5353847,14
1774419560.5590103,15
1774419560.571739,18
1774419560.587802,23
1774419560.6048007,29
1774419560.61859,36
1774419560.6386993,42
1774419560.6633916,48
1774419560.6694112,52
1774419560.695341,53
1774419560.7050653,52
1774419560.7269878,50
1774419560.7453547,48
1774419560.7588344,46
1774419560.7709725,45
1774419560.7887528,44
1774419560.8070672,43
1774419560.822934,42
1774419560.8511264,41
1774419560.8519535,40
1774419560.8711796,39
1774419560.8869236,38
1774419560.9028947,37
1774419560.918954,36
1774419560.9377646,35
1774419560.9547148,35
1774419560.9700427,34
1774419560.9855657,33
1774419561.0019329,31
1774419561.019472,30
1774419561.0362687,29
1774419561.0592866,27
1774419561.0700486,26
1774419561.0892184,24
1774419561.102716,23
1774419561.1229258,22
1774419561.135919,21
1774419561.1576047,20
1774419561.174862,20
1774419561.1870058,19
1774419561.21172,19
1774419561.227617,18
1774419561.2416565,18
1774419561.2540233,18
1774419561.2701187,17
1774419561.2860758,18
1774419561.3060696,21
1774419561.3202736,26
1774419561.337754,31
1774419561.3595202,38
1774419561.3785121,43
1774419561.3877082,48
1774419561.4096076,51
1774419561.4285657,51
1774419561.4397297,50
1774419561.4605937,48
1774419561.471723,46
1774419561.4930232,44
1774419561.5072026,42
1774419561.5226982,41
1774419561.5409293,40
1774419561.5579438,39
1774419561.5786254,39
1774419561.5902307,38
1774419561.6042638,37
1774419561.6228414,36
1774419561.6369412,35
1774419561.6618598,35
1774419561.673694,34
1774419561.6999357,33
1774419561.7052796,32
1774419561.7304678,31
1774419561.7409503,30
1774419561.761394,29
1774419561.771729,27
1774419561.7944455,26
1774419561.8095596,24
1774419561.8263817,23
1774419561.83499,22
1774419561.8585417,22
1774419561.8694947,21
1774419561.890399,20
1774419561.9124408,20
1774419561.9221194,20
1774419561.938241,19
1774419561.9541585,19
1774419561.9702306,18
1774419561.9863732,19
1774419562.0022578,20
1774419562.0185115,24
1774419562.0393636,29
1774419562.0562155,35
1774419562.078522,40
1774419562.0856369,45
1774419562.1055453,49
1774419562.1301029,50
1774419562.1381793,49
1774419562.1523452,55
1774419562.1703212,51
1774419562.1885302,47
1774419562.2021973,43
1774419562.2260833,40
1774419562.2420342,39
1774419562.2581172,37
1774419562.2733736,35
1774419562.2901173,34
1774419562.3051026,32
1774419562.3192482,31
1774419562.3372774,30
1774419562.3636754,29
1774419562.3701575,28
1774419562.3852606,27
1774419562.4039123,26
1774419562.4217029,24
1774419562.441877,21
1774419562.456448,19
1774419562.4772835,16
1774419562.4918752,14
1774419562.5026507,11
1774419562.528487,9
1774419562.5452645,6
1774419562.5524056,5
1774419562.5694847,3
1774419562.5980105,2
1774419562.6022983,1
1774419562.7094185,5
1774419562.7271626,14
1774419562.7390277,25
1774419562.753183,36
1774419562.7778764,46
1774419562.7941482,55
1774419562.8034859,58
1774419562.8286152,58
1774419562.8362668,55
1774419562.8635848,51
1774419562.8758261,47
1774419562.8954153,42
1774419562.910295,40
1774419562.9203308,38
1774419562.941675,35
1774419562.9556444,34
1774419562.9759328,32
1774419562.993061,31
1774419563.0019345,30
1774419563.0239406,30
1774419563.0358813,29
1774419563.0536368,29
1774419563.0721946,28
1774419563.0947623,27
1774419563.103822,25
1774419563.1197278,23
1774419563.135851,21
1774419563.1517842,19
1774419563.177696,16
1774419563.1955452,14
1774419563.2096841,12
1774419563.2317622,10
1774419563.238547,8
1774419563.2639127,7
1774419563.278688,5
1774419563.2956822,4
1774419563.3088248,3
1774419563.327785,1
1774419563.3618326,1
1774419563.3715415,6
1774419563.3916874,14
1774419563.4024146,24
1774419563.4239912,35
1774419563.4371052,45
1774419563.4560323,53
1774419563.4720232,57
1774419563.4873405,57
1774419563.5040343,55
1774419563.52001,51
1774419563.5359137,48
1774419563.5566592,46
1774419563.570533,44
1774419563.5930192,42
1774419563.6089592,40
1774419563.6285467,39
1774419563.641771,38
1774419563.6638107,36
1774419563.6694713,33
1774419563.6962771,32
1774419563.7057474,30
1774419563.7279015,29
1774419563.7365034,28
1774419563.7599463,27
1774419563.7688763,25
1774419563.7918139,24
1774419563.8037913,22
1774419563.8213747,20
1774419563.8348155,18
1774419563.8559701,17
1774419563.8688536,15
1774419563.8878691,13
1774419563.904157,12
1774419563.9199674,11
1774419563.9358041,10
1774419563.9515147,9
1774419563.9688385,9
1774419563.9951093,11
1774419564.004976,17
1774419564.0188138,25
1774419564.0364075,36
1774419564.0550086,46
1774419564.07121,56
1774419564.0941725,62
1774419564.1058028,67
1774419564.1212294,66
1774419564.1417837,62
1774419564.1668422,58
1774419564.170177,53
1774419564.1852531,50
1774419564.2060726,45
1774419564.2342732,43
1774419564.2348027,41
1774419564.2618666,40
1774419564.269542,40
1774419564.2862685,39
1774419564.3022754,38
1774419564.3192549,38
1774419564.338741,38
1774419564.356373,38
1774419564.382653,37
1774419564.3951576,36
1774419564.4114475,35
1774419564.4300816,32
1774419564.4415033,30
1774419564.4614577,27
1774419564.4741223,24
1774419564.4937084,22
1774419564.5084,20
1774419564.5245876,18
1774419564.5385623,17
1774419564.5558646,15
1774419564.5697615,14
1774419564.587496,14
1774419564.6035597,16
1774419564.6218185,22
1774419564.6372411,31
1774419564.6598647,42
1774419564.6705966,53
1774419564.6853063,64
1774419564.7144122,72
1774419564.728326,75
1774419564.74041,74
1774419564.7537715,72
1774419564.7767105,68
1774419564.7934499,65
1774419564.8095253,62
1774419564.8193378,60
1774419564.8394363,58
1774419564.857078,57
1774419564.877312,55
1774419564.8889658,54
1774419564.9050326,52
1774419564.9210691,51
1774419564.9371204,49
1774419564.9532933,48
1774419564.9700444,47
1774419564.9949057,46
1774419565.0131946,45
1774419565.019023,44
1774419565.0355716,42
1774419565.052816,40
1774419565.08084,38
1774419565.0862558,35
1774419565.1129103,33
1774419565.1205714,30
1774419565.1449883,28
1774419565.1542346,26
1774419565.170197,24
1774419565.192932,23
1774419565.2096055,23
1774419565.224937,26
1774419565.2411096,34
1774419565.2569711,43
1774419565.2735152,54
1774419565.2883937,66
1774419565.3049622,75
1774419565.3229544,81
1774419565.3348618,82
1774419565.3520117,80
1774419565.3789883,76
1774419565.394928,71
1774419565.4116023,67
1774419565.4228632,64
1774419565.4465592,61
1774419565.4582105,59
1774419565.4783406,57
1774419565.4847841,56
1774419565.5105467,54
1774419565.5201643,52
1774419565.5415506,50
1774419565.5576735,49
1774419565.573339,47
1774419565.585631,45
1774419565.6048844,44
1774419565.6208222,41
1774419565.6412156,38
1774419565.6561105,33
1774419565.6690726,28
1774419565.684911,23
1774419565.7090645,19
1774419565.7357035,15
1774419565.738971,13
1774419565.7532604,11
1774419565.770402,10
1774419565.7858768,10
1774419565.81288,9
1774419565.8187864,9
1774419565.8403184,12
1774419565.855316,18
1774419565.8767257,28
1774419565.8926759,39
1774419565.9087136,51
1774419565.9247837,63
1774419565.937206,73
1774419565.9610806,78
1774419565.971806,79
1774419565.9875853,78
1774419566.0039344,76
1774419566.020085,74
1774419566.0361416,72
1774419566.0537672,71
1774419566.0735288,70
1774419566.0939698,69
1774419566.1120331,67
1774419566.1286366,65
1774419566.1477418,62
1774419566.1540897,59
1774419566.1795938,57
1774419566.1869829,55
1774419566.211599,53
1774419566.2187562,51
1774419566.2443335,49
1774419566.2616358,47
1774419566.2758055,45
1774419566.285075,43
1774419566.311674,40
1774419566.3235857,38
1774419566.3403375,36
1774419566.3620315,33
1774419566.371624,31
1774419566.3876948,28
1774419566.4037335,26
1774419566.4197907,24
1774419566.4356802,23
1774419566.4559484,21
1774419566.47214,20
1774419566.4901714,19
1774419566.5186067,18
1774419566.5208716,16
1774419566.5457754,16
1774419566.5542722,20
1774419566.5776072,27
1774419566.587184,37
1774419566.6082604,47
1774419566.6186848,58
1774419566.6386025,67
1774419566.652058,73
1774419566.6745896,74
1774419566.6863563,73
1774419566.7111351,69
1774419566.721753,66
1774419566.7433105,63
1774419566.7553213,61
1774419566.771736,59
1774419566.785646,57
1774419566.810299,55
1774419566.8295062,53
1774419566.8429952,51
1774419566.863484,48
1774419566.8738737,46
1774419566.8900568,44
1774419566.913167,42
1774419566.925746,41
1774419566.9384558,40
1774419566.9540045,38
1774419566.9735966,36
1774419566.990604,34
1774419567.0089936,31
1774419567.018057,29
1774419567.0359178,26
1774419567.0531125,24
1774419567.0770547,21
1774419567.0874038,19
1774419567.1055331,18
1774419567.119185,16
1774419567.1369512,15
1774419567.153159,14
1774419567.1690679,13
1774419567.1903858,12
1774419567.2162623,11
1774419567.229631,10
1774419567.243087,10
1774419567.25716,14
1774419567.2706504,22
1774419567.2950366,31
1774419567.312379,42
1774419567.3232198,53
1774419567.343049,62
1774419567.359313,67
1774419567.3763313,68
1774419567.3885064,67
1774419567.40723,63
1774419567.419135,60
1774419567.439835,58
1774419567.4558523,56
1774419567.471505,54
1774419567.4875982,53
1774419567.5017884,51
1774419567.5197546,49
1774419567.5384881,47
1774419567.5513349,45
1774419567.569382,43
1774419567.591154,41
1774419567.6099412,40
1774419567.6224487,39
1774419567.6367104,37
1774419567.6533756,36
1774419567.6782973,34
1774419567.6909897,31
1774419567.7037196,29
1774419567.721727,26
1774419567.741574,24
1774419567.7574701,21
1774419567.7786539,19
1774419567.7862601,17
1774419567.8079288,16
1774419567.8216612,14
1774419567.8384867,13
1774419567.8531513,12
1774419567.8694959,11
1774419567.8858268,10
1774419567.9175816,9
1774419567.9179935,8
1774419567.9469948,7
1774419567.964492,6
1774419567.9783838,6
1774419567.9941413,8
1774419568.011848,14
1774419568.0196848,24
1774419568.0355308,35
1774419568.0515063,46
1774419568.0716221,58
1774419568.0896113,66
1774419568.10967,69
1774419568.121961,68
1774419568.1396751,66
1774419568.1575606,62
1774419568.1729865,58
1774419568.1861591,55
1774419568.2044752,53
1774419568.2179055,52
1774419568.2366476,50
1774419568.2523057,49
1774419568.268678,48
1774419568.2846196,46
1774419568.3054667,44
1774419568.3187213,43
1774419568.3489656,41
1774419568.3617802,40
1774419568.377776,39
1774419568.3965466,38
1774419568.4098053,36
1774419568.4286134,34
1774419568.4444928,32
1774419568.451478,29
1774419568.4872088,27
1774419568.4927316,25
1774419568.5086904,23
1774419568.5218184,21
1774419568.5407085,20
1774419568.5538535,18
1774419568.5782795,17
1774419568.5879917,16
1774419568.6113043,15
1774419568.6179233,14
1774419568.6360424,12
1774419568.6513252,10
1774419568.6792336,9
1774419568.6952648,8
1774419568.7143393,8
1774419568.720213,13
1774419568.7378047,21
1774419568.7594094,31
1774419568.7779346,42
1774419568.7944505,54
1774419568.8025572,63
1774419568.823567,68
1774419568.840739,69
1774419568.857364,67
1774419568.8742242,64
1774419568.8949027,60
1774419568.9013574,56
1774419568.9186432,54
1774419568.9407623,52
1774419568.953486,51
1774419568.9693277,49
1774419568.9854057,48
1774419569.0017002,47
1774419569.017918,46
1774419569.038964,45
1774419569.054094,44
1774419569.074528,43
1774419569.0846055,42
1774419569.1019258,41
1774419569.1231914,40
1774419569.1415756,38
1774419569.1585371,35
1774419569.1805394,32
1774419569.1930382,30
1774419569.2087495,27
1774419569.2246196,25
1774419569.2386527,22
1774419569.2616959,21
1774419569.2783334,19
1774419569.2889245,18
1774419569.3016374,17
1774419569.3245063,17
1774419569.33618,16
1774419569.352558,16
1774419569.3685088,16
1774419569.3846252,18
1774419569.4014595,25
1774419569.424448,33
1774419569.4449248,43
1774419569.452411,54
1774419569.478673,65
1774419569.4967353,72
1774419569.5053892,74
1774419569.5285041,73
1774419569.544993,70
1774419569.5545554,66
1774419569.5766191,62
1774419569.58563,58
1774419569.6084366,55
1774419569.6227226,53
1774419569.6403399,51
1774419569.6565578,49
1774419569.6713326,47
1774419569.6953409,46
1774419569.7015624,45
1774419569.7195485,44
1774419569.7384927,43
1774419569.7521787,43
1774419569.7782383,43
1774419569.7855818,41
1774419569.8155696,40
1774419569.829369,38
1774419569.8474736,35
1774419569.8618934,32
1774419569.8845944,30
1774419569.8848612,27
1774419569.904045,25
1774419569.9274955,23
1774419569.941818,21
1774419569.9521978,19
1774419569.9744477,18
1774419569.990417,17
1774419570.006352,16
1774419570.0223825,15
1774419570.0354657,16
1774419570.052208,20
1774419570.0742683,27
1774419570.0951173,37
1774419570.1184006,48
1774419570.1184642,60
1774419570.1501026,71
1774419570.161106,77
1774419570.1684523,79
1774419570.1889505,78
1774419570.2137146,75
1774419570.2193024,71
1774419570.2363505,67
1774419570.2607157,64
1774419570.2700446,61
1774419570.2845998,60
1774419570.3241997,58
1774419570.3244905,56
1774419570.341131,55
1774419570.3563886,53
1774419570.3720148,51
1774419570.3882535,50
1774419570.403792,49
1774419570.4251063,48
1774419570.44533,46
1774419570.4575014,45
1774419570.4835854,43
1774419570.4898949,41
1774419570.5039897,39
1774419570.5191715,36
1774419570.547539,34
1774419570.5563548,31
1774419570.5786095,28
1774419570.5860074,26
1774419570.6106749,25
1774419570.6237555,23
1774419570.6426482,22
1774419570.6516855,21
1774419570.6749475,20
1774419570.6849663,20
1774419570.7027538,23
1774419570.718804,31
1774419570.7378109,40
1774419570.7538435,51
1774419570.769623,63
1774419570.785133,73
1774419570.8014987,79
1774419570.8186898,80
1774419570.8490784,79
1774419570.8571975,76
1774419570.8810153,72
1774419570.8870459,68
1774419570.9053104,65
1774419570.9234393,63
1774419570.9524384,61
1774419570.9544241,59
1774419570.9769804,57
1774419570.985983,55
1774419571.0090525,53
1774419571.0177462,51
1774419571.0356848,50
1774419571.0563927,49
1774419571.0784929,47
1774419571.0901077,46
1774419571.1093888,44
1774419571.1186268,42
1774419571.1358917,40
1774419571.1524394,37
1774419571.1693618,35
1774419571.1847355,32
1774419571.2071092,29
1774419571.226391,27
1774419571.2450213,25
1774419571.2585247,23
1774419571.2804945,22
1774419571.2905474,20
1774419571.3072689,19
1774419571.3188455,18
1774419571.3417184,17
1774419571.3547275,19
1774419571.3758314,24
1774419571.3859487,33
1774419571.4078796,43
1774419571.4182389,55
1774419571.4400241,66
1774419571.4558823,74
1774419571.4679098,78
1774419571.4889917,78
1774419571.5165906,75
1774419571.5200977,72
1774419571.5361905,68
1774419571.5563226,65
1774419571.5685134,62
1774419571.5937974,61
1774419571.6116967,59
1774419571.625094,57
1774419571.6462615,55
1774419571.653297,52
1774419571.6784723,50
1774419571.6869407,48
1774419571.7119598,47
1774419571.7182312,45
1774419571.739011,44
1774419571.7542229,42
1774419571.7759202,40
1774419571.7886157,39
1774419571.8027587,36
1774419571.8182228,33
1774419571.8345025,31
1774419571.8562236,28
1774419571.8725498,26
1774419571.8888788,24
1774419571.9043667,22
1774419571.9200535,20
1774419571.9449713,19
1774419571.9519844,18
1774419571.9796467,16
1774419571.9936473,15
1774419572.0088856,14
1774419572.0191314,14
1774419572.0346181,16
1774419572.0530317,22
1774419572.0930984,31
1774419572.093177,41
1774419572.104638,53
1774419572.1270626,64
1774419572.1369822,72
1774419572.156194,75
1774419572.1680388,75
1774419572.1853023,72
1774419572.201485,68
1774419572.2229023,65
1774419572.239026,62
1774419572.254046,59
1774419572.2679458,57
1774419572.2857835,56
1774419572.3029203,54
1774419572.319006,52
1774419572.3345013,50
1774419572.3532972,48
1774419572.3680556,47
1774419572.393916,45
1774419572.4150026,44
1774419572.4265778,42
1774419572.4439435,41
1774419572.4532096,40
1774419572.4780467,39
1774419572.4920113,37
1774419572.508067,34
1774419572.5261538,31
1774419572.53509,28
1774419572.5551903,26
1774419572.5723193,22
1774419572.5898826,20
1774419572.606076,18
1774419572.625081,17
1774419572.638193,16
1774419572.654054,15
1774419572.6783686,15
1774419572.6851416,13
1774419572.7116573,12
1774419572.7283642,11
1774419572.7388136,12
1774419572.7593818,16
1774419572.7695127,24
1774419572.793723,34
1774419572.8034153,45
1774419572.8286154,57
1774419572.8450608,67
1774419572.8552315,73
1774419572.871561,74
1774419572.8862195,72
1774419572.9091957,69
1774419572.9254563,65
1774419572.9411206,62
1774419572.9571579,60
1774419572.970032,59
1774419572.9991624,57
1774419573.002185,56
1774419573.0211456,55
1774419573.0342994,53
1774419573.0530238,50
1774419573.0729148,48
1774419573.0954182,46
1774419573.1012805,44
1774419573.132225,43
1774419573.1350794,41
1774419573.1617315,40
1774419573.1690419,38
1774419573.1962664,36
1774419573.2064483,33
1774419573.2283857,31
1774419573.2441425,28
1774419573.2603111,25
1774419573.2760658,23
1774419573.2922227,21
1774419573.308049,19
1774419573.324241,17
1774419573.3345091,16
1774419573.3561082,14
1774419573.3723207,13
1774419573.3850944,12
1774419573.4044406,11
1774419573.420108,10
1774419573.436189,10
1774419573.4512424,11
1774419573.4680514,16
1774419573.4881737,24
1774419573.5049891,35
1774419573.5210838,46
1774419573.541491,58
1774419573.5594788,67
1774419573.571172,72
1774419573.588738,73
1774419573.6014225,70
1774419573.6231582,67
1774419573.6362731,64
1774419573.6581528,61
1774419573.674124,60
1774419573.6899428,58
1774419573.7061138,57
1774419573.7183037,56
1774419573.7382462,54
1774419573.7511444,52
1774419573.7702906,50
1774419573.786283,47
1774419573.802103,46
1774419573.826855,44
1774419573.8342981,42
1774419573.8660536,40
1774419573.8796997,39
1774419573.8981278,37
1774419573.9092233,35
1774419573.9282875,32
1774419573.9363534,29
1774419573.9593627,26
1774419573.9682863,24
1774419573.992829,22
1774419574.0094607,19
1774419574.025393,18
1774419574.0346816,17
1774419574.0522902,15
1774419574.0701504,14
1774419574.0854938,13
1774419574.1033401,12
1774419574.1188533,12
1774419574.1371686,13
1774419574.155475,18
1774419574.1694775,26
1774419574.1951594,37
1774419574.2116055,47
1774419574.229724,57
1774419574.2366972,64
1774419574.261476,67
1774419574.2729628,66
1774419574.2890456,63
1774419574.309488,59
1774419574.323181,55
1774419574.3444183,52
1774419574.363644,50
1774419574.379083,48
1774419574.3890696,46
1774419574.4051542,44
1774419574.4202397,42
1774419574.4384303,40
1774419574.452291,40
1774419574.4682677,39
1774419574.4986525,38
1774419574.5108204,37
1774419574.5296705,36
1774419574.5414445,35
1774419574.570028,33
1774419574.570031,31
1774419574.596132,28
1774419574.6074855,26
1774419574.6232445,23
1774419574.6357148,21
1774419574.6538005,19
1774419574.6742458,17
1774419574.694903,15
1774419574.7076275,14
1774419574.7242684,13
1774419574.740024,12
1774419574.7576535,12
1774419574.7724223,11
1774419574.7899666,13
1774419574.8043723,18
1774419574.8216348,26
1774419574.8363934,36
1774419574.853315,46
1774419574.8736448,57
1774419574.8843868,65
1774419574.906335,69
1774419574.919361,68
1774419574.9394205,66
1774419574.9645066,62
1774419574.9785516,58
1774419574.9958282,55
1774419575.0037982,52
1774419575.0284445,51
1774419575.0348015,49
1774419575.0541475,47
1774419575.076548,45
1774419575.0866363,43
1774419575.1035693,42
1774419575.12442,40
1774419575.140146,40
1774419575.1563141,39
1774419575.1731966,38
1774419575.1881633,37
1774419575.204054,36
1774419575.2260764,34
1774419575.2350907,31
1774419575.2509952,29
1774419575.2700584,27
1774419575.2880163,24
1774419575.3090482,22
1774419575.3310316,21
1774419575.3450975,19
1774419575.3616593,17
1774419575.3719778,16
1774419575.3864217,15
1774419575.4018753,14
1774419575.4277177,13
1774419575.4413595,13
1774419575.4595313,16
1774419575.4691103,23
1774419575.490153,32
1774419575.5014715,42
1774419575.5231626,53
1774419575.5356846,63
1774419575.5551157,69
1774419575.577441,71
1774419575.5871384,70
1774419575.6031702,67
1774419575.619054,63
1774419575.6349044,59
1774419575.651054,57
1774419575.6733735,55
1774419575.6873963,54
1774419575.7037919,52
1774419575.7388465,50
1774419575.7388997,48
1774419575.762126,46
1774419575.7708788,44
1774419575.794948,42
1774419575.8068175,40
1774419575.8250806,39
1774419575.8341467,38
1774419575.8531,37
1774419575.8713033,35
1774419575.8872743,33
1774419575.9008732,31
1774419575.917993,28
1774419575.9355862,25
1774419575.9513667,23
1774419575.9693499,21
1774419575.9932442,19
1774419576.0096586,17
1774419576.0202684,16
1774419576.035365,15
1774419576.053241,14
1774419576.0755847,13
1774419576.0892565,12
1774419576.1044564,11
1774419576.1272779,12
1774419576.137554,16
1774419576.1595125,24
1774419576.1689613,34
1774419576.1915252,44
1774419576.202297,55
1774419576.2235055,64
1774419576.2349274,68
1774419576.251772,69
1774419576.2712255,66
1774419576.2875617,63
1774419576.3078058,59
1774419576.328546,56
1774419576.3353891,54
1774419576.3515925,52
1774419576.3832746,51
1774419576.3966846,49
1774419576.4098744,48
1774419576.4266996,46
1774419576.4364882,43
1774419576.46142,41
1774419576.4737217,40
1774419576.495364,39
1774419576.5057442,37
1774419576.522158,36
1774419576.538704,35
1774419576.5553267,33
1774419576.569752,31
1774419576.5914924,29
1774419576.6019,26
1774419576.6233912,24
1774419576.6341076,21
1774419576.6617095,19
1774419576.6674688,17
1774419576.6874375,14
1774419576.7035236,13
1774419576.721142,12
1774419576.7353423,10
1774419576.755403,9
1774419576.775078,8
1774419576.7885365,8
1774419576.8057706,7
1774419576.8205035,7
1774419576.843262,10
1774419576.8617163,16
1774419576.8784716,26
1774419576.8871017,37
1774419576.9048045,47
1774419576.9283223,58
1774419576.938004,65
1774419576.9573956,67
1774419576.9717214,66
1774419576.9850817,63
1774419577.0026746,59
1774419577.0217483,55
1774419577.0341299,53
1774419577.0527067,51
1774419577.07194,49
1774419577.0854743,48
1774419577.1116502,47
1774419577.11762,45
1774419577.1481237,43
1774419577.1534743,41
1774419577.17841,40
1774419577.1846604,39
1774419577.2099009,38
1774419577.233363,36
1774419577.2343614,35
1774419577.257049,33
1774419577.27391,31
1774419577.2928886,29
1774419577.3065052,27
1774419577.3240712,24
1774419577.3390439,22
1774419577.355996,19
1774419577.3722103,17
1774419577.3900816,16
1774419577.4035368,14
1774419577.4199803,13
1774419577.4341347,12
1774419577.4523306,11
1774419577.4679744,10
1774419577.4851177,10
1774419577.5007706,9
1774419577.530009,9
1774419577.5451617,11
1774419577.561705,17
1774419577.5801246,25
1774419577.5964625,36
1774419577.6121001,46
1774419577.621979,56
1774419577.6387217,64
1774419577.658941,66
1774419577.6750634,66
1774419577.6895943,63
1774419577.7008173,60
1774419577.7223961,56
1774419577.7397046,53
1774419577.7591145,51
1774419577.7708142,50
1774419577.786507,48
1774419577.8018467,46
1774419577.8185859,45
1774419577.8403702,43
1774419577.858618,41
1774419577.8797102,40
1774419577.8891206,40
1774419577.9033203,39
1774419577.9191303,38
1774419577.9452233,37
1774419577.9582713,36
1774419577.9775093,33
1774419577.9930017,31
1774419578.0073745,29
1774419578.0250785,26
1774419578.037043,24
1774419578.0569386,22
1774419578.0758111,21
1774419578.0899484,19
1774419578.105758,18
1774419578.1207442,18
1774419578.1378791,17
1774419578.1529822,17
1774419578.1693683,16
1774419578.193062,16
1774419578.2015197,16
1774419578.219279,19
1774419578.2346401,26
1774419578.2601135,35
1774419578.280719,44
1774419578.2869806,55
1774419578.3119276,64
1774419578.3298,69
1774419578.3445268,70
1774419578.3525176,68
1774419578.3683844,64
1774419578.3916364,60
1774419578.40197,56
1774419578.4247541,53
1774419578.440633,50
1774419578.4566216,49
1774419578.472539,47
1774419578.4887471,45
1774419578.5048363,44
1774419578.520644,43
1774419578.5368237,42
1774419578.5508275,41
1774419578.576157,40
1774419578.5846379,40
1774419578.6017802,40
1774419578.6226392,38
1774419578.638849,36
1774419578.6604059,34
1774419578.6721582,31
1774419578.6951108,29
1774419578.7014244,27
1774419578.7276244,25
1774419578.739012,23
1774419578.7595437,21
1774419578.774644,20
1774419578.7907412,19
1774419578.8066204,18
1774419578.8216488,17
1774419578.8354766,17
1774419578.8526556,18
1774419578.8690844,22
1774419578.8975275,30
1774419578.9051197,40
1774419578.9285476,50
1774419578.9389071,60
1774419578.9606743,68
1774419578.9708033,72
1774419578.9950657,72
1774419579.002281,69
1774419579.027527,65
1774419579.0353038,61
1774419579.0514882,57
1774419579.0749967,55
1774419579.084052,53
1774419579.1071012,51
1774419579.1193166,50
1774419579.1391647,49
1774419579.155061,47
1774419579.171613,46
1774419579.1870773,45
1774419579.2032535,44
1774419579.2260804,43
1774419579.2388241,42
1774419579.2509913,41
1774419579.2724998,40
1774419579.2855525,39
1774419579.3027315,37
1774419579.3308778,34
1774419579.3348148,32
1774419579.358771,29
1774419579.3709936,27
1774419579.3949115,25
1774419579.4037323,23
1774419579.4178278,22
1774419579.446628,21
1774419579.451794,20
1774419579.4742587,18
1774419579.4865427,18
1774419579.5034964,19
1774419579.5283425,25
1774419579.5380087,33
1774419579.5540082,43
1774419579.5679116,55
1774419579.5849898,66
1774419579.6016629,74
1774419579.628921,77
1774419579.6465013,77
1774419579.6588326,74
1774419579.6749938,71
1774419579.695178,67
1774419579.7079964,65
1774419579.7234042,63
1774419579.7356408,61
1774419579.7573788,60
1774419579.7698786,59
1774419579.7928483,57
1774419579.8089938,55
1774419579.8236122,53
1774419579.840956,51
1774419579.8538544,49
1774419579.870232,48
1774419579.8949997,47
1774419579.9007256,46
1774419579.9199004,44
1774419579.935842,42
1774419579.9522386,40
1774419579.969358,39
1774419579.9963365,36
1774419580.002246,34
1774419580.0208106,32
1774419580.0354943,30
1774419580.0535986,28
1774419580.07175,26
1774419580.0888658,25
1774419580.1057725,23
1774419580.1265364,22
1774419580.1377459,20
1774419580.1587782,20
1774419580.1704547,24
1774419580.1861534,31
1774419580.2079463,40
1774419580.218087,51
1774419580.238794,62
1774419580.2505805,71
1774419580.2707028,77
1774419580.286917,77
1774419580.3027797,76
1774419580.31912,72
1774419580.3350236,69
1774419580.3508067,66
1774419580.3674097,64
1774419580.3963456,62
1774419580.4096408,61
1774419580.4182653,59
1774419580.4437711,57
1774419580.4624133,55
1774419580.4763684,53
1774419580.4944336,51
1774419580.5105662,49
1774419580.5264528,47
1774419580.5403402,46
1774419580.5585833,45
1774419580.5743325,43
1774419580.5904305,41
1774419580.6062906,40
1774419580.6178565,38
1774419580.6385314,35
1774419580.6545925,33
1774419580.670621,30
1774419580.6902182,28
1774419580.702719,26
1774419580.717275,24
1774419580.7345886,23
1774419580.752527,22
1774419580.7712004,21
1774419580.7891927,19
1774419580.8097565,19
1774419580.8181844,19
1774419580.8355768,24
1774419580.86231,31
1774419580.870527,40
1774419580.8874972,50
1774419580.905673,61
1774419580.9244106,69
1774419580.9399557,73
1774419580.9576874,73
1774419580.973326,71
1774419580.9856894,67
1774419581.0049896,64
1774419581.0192566,62
1774419581.034155,59
1774419581.0522568,58
1774419581.0689652,56
1774419581.0839446,54
1774419581.1117887,52
1774419581.117249,49
1774419581.1408725,47
1774419581.1581094,45
1774419581.1745658,43
1774419581.1851404,42
1774419581.2018478,41
1774419581.2268476,40
1774419581.237298,39
1774419581.2570705,37
1774419581.2741222,35
1774419581.2951386,33
1774419581.3070898,31
1774419581.321913,28
1774419581.3427193,26
1774419581.353799,24
1774419581.372396,22
1774419581.3855126,20
1774419581.4041064,19
1774419581.4176717,18
1774419581.4437945,17
1774419581.4508457,16
1774419581.4825866,15
1774419581.4863207,14
1774419581.5144737,14
1774419581.5186706,17
1774419581.5354085,24
1774419581.5628607,33
1774419581.575193,43
1774419581.5944114,53
1774419581.610648,62
1774419581.6224713,67
1774419581.6426318,68
1774419581.6617975,66
1774419581.674482,62
1774419581.6904936,59
1774419581.713463,56
1774419581.7218049,54
1774419581.7375686,53
1774419581.7522855,52
1774419581.772383,50
1774419581.7844493,48
1774419581.8015962,46
1774419581.8189807,44
1774419581.8494158,41
1774419581.8568437,40
1774419581.88055,39
1774419581.884045,38
1774419581.9012256,36
1774419581.9211538,35
1774419581.935491,33
1774419581.9579265,31
1774419581.9758284,29
1774419581.9917252,27
1774419582.00783,24
1774419582.0242968,22
1774419582.0354636,20
1774419582.054091,19
1774419582.07545,18
1774419582.0846555,17
1774419582.102845,16
1774419582.1199458,16
1774419582.1356347,15
1774419582.151592,14
1774419582.167594,13
1774419582.1860247,15
1774419582.2008598,20
1774419582.2176995,27
1774419582.2384953,37
1774419582.2592077,46
1774419582.2795072,55
1774419582.295016,60
1774419582.3116457,62
1774419582.3195405,61
1774419582.3435943,57
1774419582.3630278,53
1774419582.3716528,50
1774419582.3884609,47
1774419582.4116194,46
1774419582.4210372,44
1774419582.4397416,42
1774419582.4538605,41
1774419582.4710877,40
1774419582.4844222,39
1774419582.5033054,37
1774419582.5186222,36
1774419582.5354295,36
1774419582.5612319,35
1774419582.5856206,35
1774419582.5857346,34
1774419582.6150563,32
1774419582.6177757,30
1774419582.6424735,28
1774419582.6504588,26
1774419582.6791294,24
1774419582.6838188,22
1774419582.711055,21
1774419582.7192845,19
1774419582.743275,18
1774419582.7504814,17
1774419582.7678518,17
1774419582.7908032,16
1774419582.8059874,15
1774419582.8284073,15
1774419582.8380835,17
1774419582.8542664,22
1774419582.8827422,30
1774419582.8847277,39
1774419582.9022684,48
1774419582.9180913,56
1774419582.9343002,62
1774419582.9538558,63
1774419582.9695437,62
1774419582.9870868,58
1774419583.011803,54
1774419583.0183222,50
1774419583.0372868,47
1774419583.0504308,46
1774419583.070197,44
1774419583.096292,42
1774419583.1044643,40
1774419583.128558,39
1774419583.13616,37
1774419583.1504877,36
1774419583.1732686,34
1774419583.196405,33
1774419583.205013,32
1774419583.221013,31
1774419583.2450998,30
1774419583.253193,27
1774419583.269205,25
1774419583.2850115,22
1774419583.301227,19
1774419583.3196146,17
1774419583.352178,14
1774419583.3538656,13
1774419583.3755872,11
1774419583.3925905,10
1774419583.40851,9
1774419583.4200377,8
1774419583.4444964,7
1774419583.4545598,6
1774419583.4765403,6
1774419583.485896,8
1774419583.508729,14
1774419583.5174875,22
1774419583.5358167,32
1774419583.5566518,42
1774419583.5697489,51
1774419583.5880105,58
1774419583.6047466,60
1774419583.6206741,59
1774419583.6367319,56
1774419583.6635315,53
1774419583.6686833,50
1774419583.6847453,48
1774419583.7012553,47
1774419583.7284434,46
1774419583.744964,45
1774419583.758941,44
1774419583.773051,42
1774419583.78637,40
1774419583.8110204,39
1774419583.8231103,38
1774419583.8368392,37
1774419583.850696,36
1774419583.8763943,35
1774419583.8893583,34
1774419583.9148393,33
1774419583.919164,32
1774419583.9393,30
1774419583.9553268,28
1774419583.9712586,26
1774419583.9873648,24
1774419584.0034363,23
1774419584.0175724,21
1774419584.0351365,20
1774419584.0522032,19
1774419584.0754929,19
1774419584.089719,18
1774419584.1121001,17
1774419584.1209178,17
1774419584.1427372,16
1774419584.153479,15
1774419584.1696553,14
1774419584.1894069,15
1774419584.2131593,21
1774419584.2261286,29
1774419584.2345192,39
1774419584.2554488,49
1774419584.274203,59
1774419584.2855818,65
1774419584.3097465,68
1774419584.3213007,67
1774419584.3343236,63
1774419584.3509233,59
1774419584.369219,55
1774419584.3855975,52
1774419584.4117525,50
1774419584.4172952,48
1774419584.4450245,47
1774419584.454239,45
1774419584.480629,43
1774419584.4854572,41
1774419584.5116544,40
1774419584.5185206,39
1774419584.53578,37
1774419584.553206,36
1774419584.5714977,35
1774419584.585679,35
1774419584.6090322,33
1774419584.6257088,32
1774419584.6355164,30
1774419584.6503348,28
1774419584.6678033,26
1774419584.6892984,24
1774419584.7053406,22
1774419584.7212253,20
1774419584.733801,19
1774419584.751801,18
1774419584.7694278,17
1774419584.7852256,16
1774419584.8103907,15
1774419584.8182113,15
1774419584.8451653,14
1774419584.8654099,15
1774419584.874361,19
1774419584.8918447,26
1774419584.90964,35
1774419584.9224598,45
1774419584.9365907,56
1774419584.9605515,64
1774419584.9670813,69
1774419584.9926388,70
1774419585.0085363,68
1774419585.0184388,65
1774419585.037568,62
1774419585.0513263,59
1774419585.0724642,57
1774419585.0885873,56
1774419585.103954,54
1774419585.136576,53
1774419585.1368155,52
1774419585.1564708,51
1774419585.1687481,50
1774419585.184246,50
1774419585.2027104,49
1774419585.2254608,48
1774419585.234118,48
1774419585.2522454,46
1774419585.2688522,45
1774419585.2952092,42
1774419585.307125,40
1774419585.3175712,37
1774419585.3430498,34
1774419585.358602,32
1774419585.368349,29
1774419585.3855715,27
1774419585.4113424,24
1774419585.4215245,22
1774419585.4401596,21
1774419585.4628987,19
1774419585.4717307,18
1774419585.4944353,17
1774419585.500674,17
1774419585.517945,19
1774419585.5338056,26
1774419585.5516217,34
1774419585.5775886,43
1774419585.5909612,53
1774419585.6118486,62
1774419585.6256037,66
1774419585.6400228,67
1774419585.6555202,65
1774419585.6702037,61
1774419585.6889665,56
1774419585.7104855,53
1774419585.7253351,51
1774419585.7455416,49
1774419585.7528617,48
1774419585.778948,46
1774419585.7858484,45
1774419585.8014176,44
1774419585.8211887,43
1774419585.840604,42
1774419585.8531072,41
1774419585.869124,41
1774419585.8852746,40
1774419585.9083025,40
1774419585.9171371,40
1774419585.934736,39
1774419585.954022,37
1774419585.9811256,35
1774419585.9855435,33
1774419586.0042195,31
1774419586.0280495,29
1774419586.035769,27
1774419586.0536265,25
1774419586.0763044,24
1774419586.0919712,22
1774419586.1082985,21
1774419586.1181662,22
1774419586.140897,26
1774419586.1536515,34
1774419586.171158,42
1774419586.1855602,53
1774419586.2188146,63
1774419586.2189584,72
1774419586.2345636,75
1774419586.250656,75
1774419586.2733035,73
1774419586.2842677,69
1774419586.3004847,64
1774419586.330236,61
1774419586.3466198,58
1774419586.3615856,56
1774419586.3783727,54
1774419586.3891408,52
1774419586.4109516,50
1774419586.426827,48
1774419586.4387789,46
1774419586.4649448,45
1774419586.4706376,43
1774419586.484134,42
1774419586.5088003,41
1774419586.5182521,40
1774419586.5353491,39
1774419586.5535893,37
1774419586.5708551,35
1774419586.5858343,32
1774419586.6164925,30
1774419586.6226363,27
1774419586.634853,25
1774419586.6508274,23
1774419586.6730473,21
1774419586.6922462,20
1774419586.7011974,18
1774419586.7278073,17
1774419586.7388234,19
1774419586.7617102,24
1774419586.7779303,32
1774419586.7939498,42
1774419586.81009,53
1774419586.8220448,64
1774419586.8347282,73
1774419586.8556714,77
1774419586.873952,77
1774419586.8899662,74
1774419586.9059088,70
1774419586.9208717,66
1774419586.933592,63
1774419586.9528983,60
1774419586.968066,58
1774419586.9855192,56
1774419587.0011923,53
1774419587.0175455,52
1774419587.03393,50
1774419587.052053,48
1774419587.066852,47
1774419587.0920045,45
1774419587.10732,44
1774419587.1226025,43
1774419587.1384015,42
1774419587.1631756,40
1774419587.1770222,38
1774419587.187004,35
1774419587.2090065,32
1774419587.2267406,29
1774419587.235326,26
1774419587.267259,24
1774419587.2675762,22
1774419587.2895675,20
1774419587.3043487,18
1774419587.317649,17
1774419587.3363273,16
1774419587.351697,15
1774419587.3682802,14
1774419587.38447,14
1774419587.4003046,16
1774419587.4226706,22
1774419587.4338672,32
1774419587.4591548,43
1774419587.4771717,55
1774419587.4892373,67
1774419587.5037785,76
1774419587.5284297,80
1774419587.5427601,80
1774419587.5588665,77
1774419587.5735488,73
1774419587.5908322,69
1774419587.615974,65
1774419587.6176243,62
1774419587.637735,60
1774419587.652849,58
1774419587.6681936,56
1774419587.6907718,54
1774419587.7069726,52
1774419587.7171261,51
1774419587.7479672,50
1774419587.7604706,49
1774419587.7726767,48
1774419587.7889507,46
1774419587.8035946,45
1774419587.8238828,43
1774419587.8336098,40
1774419587.858869,38
1774419587.8751287,35
1774419587.891445,32
1774419587.9068756,30
1774419587.9280372,27
1774419587.9399555,24
1774419587.955165,22
1774419587.9713495,21
1774419587.9868555,19
1774419588.0001566,18
1774419588.016912,17
1774419588.0340908,17
1774419588.0508332,16
1774419588.0759108,15
1774419588.0923493,15
1774419588.1149504,20
1774419588.1274374,28
1774419588.1349316,39
1774419588.157262,51
1774419588.1737714,63
1774419588.1877356,74
1774419588.2011259,80
1774419588.2209332,82
1774419588.2347827,80
1774419588.2576299,76
1774419588.2668204,71
1774419588.283873,67
1774419588.30156,64
1774419588.320069,61
1774419588.3359122,58
1774419588.3549623,57
1774419588.3702419,55
1774419588.3870323,54
1774419588.4018428,53
1774419588.4190176,53
1774419588.435189,52
1774419588.4529824,52
1774419588.4670951,51
1774419588.493154,50
1774419588.502011,48
1774419588.5281668,45
1774419588.5377812,42
1774419588.5617118,40
1774419588.5678911,37
1774419588.5927908,34
1774419588.608532,31
1774419588.6230927,29
1774419588.6354449,26
1774419588.6558826,25
1774419588.6721108,23
1774419588.6930006,22
1774419588.7006562,20
1774419588.7199342,19
1774419588.733513,18
1774419588.760447,18
1774419588.7738655,23
1774419588.7878902,31
1774419588.8023653,42
1774419588.8289695,54
1774419588.839295,67
1774419588.8629947,78
1774419588.8672266,84
1774419588.8929904,85
1774419588.9035048,83
1774419588.9216764,79
1774419588.9375963,74
1774419588.9577532,70
1774419588.9734368,66
1774419588.9886565,63
1774419589.0016348,60
1774419589.0208387,58
1774419589.0336866,57
1774419589.0508804,55
1774419589.0689936,55
1774419589.085494,54
1774419589.108193,54
1774419589.1168978,54
1774419589.1334856,54
1774419589.1637554,53
1774419589.179556,52
1774419589.1967907,50
1774419589.204856,47
1774419589.2231016,45
1774419589.237514,42
1774419589.2593827,40
1774419589.268943,38
1774419589.2910466,36
1774419589.3067834,34
1774419589.322906,33
1774419589.3390217,31
1774419589.3572915,30
1774419589.3704078,28
1774419589.383727,25
1774419589.402432,23
1774419589.4184394,20
1774419589.4343882,18
1774419589.4502563,21
1774419589.466786,28
1774419589.4865496,39
1774419589.503991,50
1774419589.5275447,64
1774419589.5543582,76
1774419589.5616245,84
1774419589.5770106,88
1774419589.5939434,88
1774419589.6016555,86
1774419589.622859,83
1774419589.6418471,80
1774419589.6577866,77
1774419589.6739054,74
1774419589.6844487,72
1774419589.700107,70
1774419589.7312913,68
1774419589.7379723,66
1774419589.7538426,65
1774419589.7698815,63
1774419589.7914374,62
1774419589.800811,61
1774419589.8169427,61
1774419589.833605,60
1774419589.8617647,58
1774419589.8737903,56
1774419589.8970265,53
1774419589.9115996,50
1774419589.9285455,47
1774419589.9447231,43
1774419589.9609325,40
1774419589.9767222,36
1774419589.992966,32
1774419590.0077975,28
1774419590.0247314,24
1774419590.034954,21
1774419590.0535688,18
1774419590.0718284,16
1774419590.085045,15
1774419590.106114,13
1774419590.1204822,12
1774419590.1359873,11
1774419590.1518645,11
1774419590.16785,16
1774419590.183964,25
1774419590.200808,37
1774419590.228201,52
1774419590.242759,67
1774419590.2632134,80
1774419590.2667594,89
1774419590.295707,92
1774419590.3116887,91
1774419590.3295286,87
1774419590.3376691,83
1774419590.359861,78
1774419590.3692124,74
1774419590.3920872,71
1774419590.400369,68
1774419590.4219453,66
1774419590.4380312,63
1774419590.4539344,61
1774419590.4699268,60
1774419590.4950488,58
1774419590.5020306,58
1774419590.5179152,57
1774419590.5393305,56
1774419590.5656576,55
1774419590.5669672,52
1774419590.5862377,49
1774419590.6036463,45
1774419590.6262937,41
1774419590.633589,38
1774419590.6640096,33
1774419590.6688454,28
1774419590.6855342,24
1774419590.7091548,20
1774419590.7233908,17
1774419590.7337608,14
1774419590.756927,11
1774419590.7705436,8
1774419590.7889116,7
1774419590.8058813,8
1774419590.8166463,14
1774419590.8370404,23
1774419590.8688726,36
1774419590.8742468,50
1774419590.8852305,65
1774419590.9011247,77
1774419590.9169803,83
1774419590.9336293,85
1774419590.9648304,83
1774419590.9696243,79
1774419590.9868567,75
1774419591.0027738,70
1774419591.029314,66
1774419591.0335872,62
1774419591.05191,58
1774419591.076823,54
1774419591.0861597,51
1774419591.108893,48
1774419591.1248503,46
1774419591.1387494,44
1774419591.1503046,43
1774419591.1783524,43
1774419591.194998,43
1774419591.2059345,42
1774419591.2210526,41
1774419591.236929,40
1774419591.2530458,36
1774419591.2691772,33
1774419591.2848108,30
1774419591.3009043,27
1774419591.3170993,24
1774419591.3381636,21
1774419591.3588655,18
1774419591.3710902,16
1774419591.3837528,14
1774419591.4039123,13
1774419591.4242723,15
1774419591.4339337,22
1774419591.460868,33
1774419591.475361,47
1774419591.4914885,63
1774419591.5093012,78
1774419591.5262253,90
1774419591.534077,97
1774419591.554426,99
1774419591.5779505,97
1774419591.5868368,93
1774419591.602603,89
1774419591.619959,85
1774419591.6347272,81
1774419591.6502023,78
1774419591.6673853,75
1774419591.6987412,71
1774419591.7059965,68
1774419591.724279,64
1774419591.7376406,61
1774419591.7602339,58
1774419591.7737403,56
1774419591.7898405,54
1774419591.8022463,51
1774419591.8263755,49
1774419591.8396406,46
1774419591.8553782,43
1774419591.869458,40
1774419591.8855703,38
1774419591.906362,34
1774419591.9209225,31
1774419591.9384155,28
1774419591.9543376,25
1774419591.9712968,22
1774419591.9906607,20
1774419592.0068166,17
1774419592.0180483,15
1774419592.0336819,13
1774419592.0500805,12
1774419592.073523,13
1774419592.0900388,19
1774419592.1009593,29
1774419592.1281939,42
1774419592.1342893,57
1774419592.1619072,73
1774419592.1689618,87
1774419592.1880891,95
1774419592.2020109,98
1774419592.2260144,97
1774419592.2340605,94
1774419592.256913,89
1774419592.270108,85
1774419592.289373,81
1774419592.3049078,78
1774419592.3167362,75
1774419592.3447595,72
1774419592.353022,69
1774419592.368923,65
1774419592.3963249,62
1774419592.401095,60
1774419592.417221,57
1774419592.4404845,55
1774419592.4499934,54
1774419592.469093,51
1774419592.495527,48
1774419592.5055826,45
1774419592.5225198,41
1774419592.5386474,38
1774419592.5506084,34
1774419592.5766833,29
1774419592.593027,25
1774419592.605083,21
1774419592.624919,18
1774419592.6348195,14
1774419592.6556041,11
1774419592.6730587,9
1774419592.6853292,7
1774419592.7049751,4
1774419592.7261338,3
1774419592.744683,1
1774419592.7679927,3
1774419592.7927127,11
1774419592.7999468,23
1774419592.8165884,38
1774419592.8480334,54
1774419592.8559237,70
1774419592.875964,82
1774419592.8954473,88
1774419592.905674,89
1774419592.9278464,86
1774419592.9379892,81
1774419592.959857,76
1774419592.971072,72
1774419592.9919255,67
1774419593.0082042,64
1774419593.0240774,60
1774419593.0389724,57
1774419593.0521674,54
1774419593.067527,51
1774419593.0873413,47
1774419593.1031766,44
1774419593.1190946,42
1774419593.1450217,40
1774419593.1594667,37
1774419593.1769876,34
1774419593.188775,31
1774419593.2127721,27
1774419593.2283115,23
1774419593.2435896,18
1774419593.2588274,14
1774419593.2782035,8
1774419593.2940013,3
1774419593.5488124,8
1774419593.5498264,22
1774419593.5796363,37
1774419593.586748,49
1774419593.6128864,55
1774419593.6282768,58
1774419593.633503,56
1774419593.6548092,53
1774419593.6707685,49
1774419593.6926858,46
1774419593.707065,44
1774419593.7237587,42
1774419593.7398756,40
1774419593.7557712,39
1774419593.769585,37
1774419593.7918878,36
1774419593.8015833,34
1774419593.821666,33
1774419593.8364215,32
1774419593.849855,31
1774419593.872369,31
1774419593.8952665,30
1774419593.8999157,29
1774419593.931712,27
1774419593.9370625,24
1774419593.9618313,21
1774419593.970222,18
1774419593.995675,15
1774419594.0117884,12
1774419594.0198624,9
1774419594.042161,7
1774419594.0509946,4
1774419594.06998,2
