timestamp,bvp
1774420679.7398753,27
1774420679.7565105,35
1774420679.773252,44
1774420679.7898629,55
1774420679.8064823,67
1774420679.8232112,77
1774420679.8398397,83
1774420679.856526,85
1774420679.8732493,84
1774420679.8898053,80
1774420679.906527,76
1774420679.923158,71
1774420679.9398994,67
1774420679.9564729,62
1774420679.973136,58
1774420679.9899783,54
1774420680.0068836,51
1774420680.024036,48
1774420680.0432844,46
1774420680.0567365,44
1774420680.0739648,44
1774420680.0902853,44
1774420680.110773,44
1774420680.1236503,43
1774420680.1408494,42
1774420680.157019,40
1774420680.1735685,39
1774420680.1977863,36
1774420680.2070928,33
1774420680.2234828,31
1774420680.2408204,28
1774420680.2604852,25
1774420680.2732162,23
1774420680.2901595,21
1774420680.3071687,20
1774420680.3251681,19
1774420680.3406875,18
1774420680.3569148,17
1774420680.3736355,17
1774420680.3899062,17
1774420680.4069526,18
1774420680.4330761,18
1774420680.456395,18
1774420680.4599533,19
1774420680.4763045,19
1774420680.4933186,18
1774420680.516388,18
1774420680.5261493,17
1774420680.5434978,18
1774420680.56011,21
1774420680.5740988,28
1774420680.5939379,38
1774420680.6084719,49
1774420680.626702,61
1774420680.642818,73
1774420680.6566648,81
1774420680.6732693,86
1774420680.691519,86
1774420680.7084084,84
1774420680.7237906,79
1774420680.740008,75
1774420680.7572608,70
1774420680.7738552,65
1774420680.7916017,60
1774420680.8078396,56
1774420680.8238862,53
1774420680.8423505,50
1774420680.8601816,48
1774420680.875669,47
1774420680.89195,46
1774420680.9085588,46
1774420680.924356,46
1774420680.94217,46
1774420680.9565945,45
1774420680.9741373,43
1774420680.9904022,41
1774420681.0071757,40
1774420681.0264573,37
1774420681.0405939,34
1774420681.0595708,32
1774420681.0743566,29
1774420681.094151,27
1774420681.1082919,25
1774420681.1235516,23
1774420681.1435452,22
1774420681.1597562,21
1774420681.176916,21
1774420681.1917388,20
1774420681.2083175,21
1774420681.2264533,21
1774420681.242879,22
1774420681.2601595,22
1774420681.2773051,22
1774420681.2965682,22
1774420681.310729,22
1774420681.3262014,21
1774420681.3429892,21
1774420681.3595788,22
1774420681.3765204,26
1774420681.3928926,34
1774420681.4084399,43
1774420681.4262986,54
1774420681.4408882,36
1774420682.2067795,9
1774420682.2261794,28
1774420682.2430515,47
1774420682.2596483,65
1774420682.2762692,79
1774420682.3016596,87
1774420682.3121796,90
1774420682.3269522,88
1774420682.3396993,83
1774420682.359357,58
1774420682.3757658,55
1774420682.3928466,52
1774420682.4098325,49
1774420682.426793,47
1774420682.44156,44
1774420682.459843,43
1774420682.478279,41
1774420682.4928658,41
1774420682.5089526,40
1774420682.5247986,41
1774420682.5429718,41
1774420682.5572357,41
1774420682.576405,40
1774420682.5909617,40
1774420682.6083581,39
1774420682.626465,37
1774420682.6404333,35
1774420682.666882,33
1774420682.6732469,31
1774420682.7002354,30
1774420682.7077985,28
1774420682.7281096,27
1774420682.740459,26
1774420682.760278,25
1774420682.776387,25
1774420682.792861,25
1774420682.8095367,25
1774420682.826298,25
1774420682.8437643,26
1774420682.860019,26
1774420682.876395,26
1774420682.891809,26
1774420682.9094272,26
1774420682.923696,26
1774420682.9400523,27
1774420682.9564433,30
1774420682.976305,34
1774420682.9928403,40
1774420683.0098097,48
1774420683.026322,57
1774420683.0403612,64
1774420683.0595727,69
1774420683.078525,71
1774420683.0927994,71
1774420683.1095483,69
1774420683.1295063,66
1774420683.139779,62
1774420683.159628,59
1774420683.1741421,56
1774420683.1927736,53
1774420683.2066214,50
1774420683.22505,47
1774420683.2422867,46
1774420683.2606215,44
1774420683.2762964,44
1774420683.2928176,44
1774420683.3065217,44
1774420683.3309667,44
1774420683.3428173,43
1774420683.360906,42
1774420683.375734,41
1774420683.3931427,40
1774420683.4083972,38
1774420683.426247,36
1774420683.4428878,34
1774420683.4633622,32
1774420683.4731913,31
1774420683.4928102,29
1774420683.5067527,28
1774420683.5242963,27
1774420683.541904,27
1774420683.5573778,27
1774420683.574034,27
1774420683.5930426,27
1774420683.6096976,28
1774420683.6430569,28
1774420683.6430597,28
1774420683.6654677,28
1774420683.676195,27
1774420683.6936576,27
1774420683.7097073,29
1774420683.7262228,32
1774420683.7462418,37
1774420683.7597005,43
1774420683.7766588,51
1774420683.792963,59
1774420683.8078785,66
1774420683.8261654,70
1774420683.8425157,71
1774420683.8564987,70
1774420683.8735197,67
1774420683.8919792,64
1774420683.9096498,61
1774420683.926218,58
1774420683.9429183,55
1774420683.9594562,52
1774420683.976972,49
1774420683.9998221,47
1774420684.009506,45
1774420684.032455,44
1774420684.0465062,43
1774420684.064281,42
1774420684.0804298,42
1774420684.0964723,42
1774420684.1072433,41
1774420684.1265333,40
1774420684.1431746,39
1774420684.1563067,37
1774420684.1766016,35
1774420684.192469,33
1774420684.206681,31
1774420684.2256079,30
1774420684.2405016,28
1774420684.2594485,26
1774420684.2748637,25
1774420684.2928836,25
1774420684.3065116,24
1774420684.325006,24
1774420684.3396027,24
1774420684.35979,24
1774420684.3749082,24
1774420684.39032,24
1774420684.412946,24
1774420684.4243865,23
1774420684.4451816,23
1774420684.459734,23
1774420684.4780204,25
1774420684.4943225,29
1774420684.5094423,34
1774420684.524472,41
1774420684.5414162,49
1774420684.5602553,57
1774420684.5742345,64
1774420684.5942574,68
1774420684.6081772,69
1774420684.6262927,68
1774420684.6414144,65
1774420684.6568277,63
1774420684.6729944,60
1774420684.692912,57
1774420684.7066507,54
1774420684.7327168,51
1774420684.7442682,48
1774420684.7598555,46
1774420684.7762794,44
1774420684.791619,42
1774420684.8097706,41
1774420684.8284347,41
1774420684.8443472,40
1774420684.859836,40
1774420684.8760052,40
1774420684.8920417,39
1774420684.9079158,37
1774420684.9273317,36
1774420684.9403188,34
1774420684.9608457,32
1774420684.9744248,30
1774420684.9929135,28
1774420685.0093706,26
1774420685.0348349,25
1774420685.0403981,24
1774420685.06057,23
1774420685.076279,22
1774420685.094178,22
1774420685.112426,22
1774420685.124871,22
1774420685.1428754,22
1774420685.1596239,22
1774420685.1772008,22
1774420685.1936343,22
1774420685.206467,22
1774420685.2256348,22
1774420685.244607,22
1774420685.2595327,21
1774420685.2749794,21
1774420685.290393,22
1774420685.3097484,25
1774420685.3303394,31
1774420685.3427553,38
1774420685.3608465,46
1774420685.3732662,55
1774420685.3925729,62
1774420685.4099483,67
1774420685.4338508,69
1774420685.44294,68
1774420685.4609485,66
1774420685.4729075,63
1774420685.4937658,60
1774420685.5139546,57
1774420685.5306237,54
1774420685.5442092,51
1774420685.5590813,48
1774420685.5737908,45
1774420685.5917356,43
1774420685.6096654,42
1774420685.6262572,41
1774420685.643026,41
1774420685.6563396,40
1774420685.6813967,40
1774420685.6929312,40
1774420685.709759,39
1774420685.7263963,37
1774420685.7428746,35
1774420685.7597067,33
1774420685.776298,31
1774420685.7929034,29
1774420685.809877,27
1774420685.8262026,26
1774420685.840347,24
1774420685.8595314,23
1774420685.8761966,22
1774420685.8942816,21
1774420685.9094446,21
1774420685.9263077,20
1774420685.9430513,20
1774420685.9592574,20
1774420685.9768417,20
1774420685.9907012,20
1774420686.0108023,20
1774420686.0228157,20
1774420686.0480232,20
1774420686.0693061,20
1774420686.078836,20
1774420686.0912511,20
1774420686.117197,19
1774420686.1269965,19
1774420686.1431053,18
1774420686.1573029,18
1774420686.1761622,20
1774420686.1929328,24
1774420686.2063947,30
1774420686.2241988,38
1774420686.2402816,46
1774420686.2604415,55
1774420686.277274,63
1774420686.2926052,67
1774420686.3089354,68
1774420686.3247747,67
1774420686.34282,64
1774420686.3561401,61
1774420686.3783195,57
1774420686.393081,54
1774420686.4097137,51
1774420686.4262564,48
1774420686.4478376,45
1774420686.4594903,43
1774420686.4731498,41
1774420686.4990618,40
1774420686.509859,40
1774420686.5263364,40
1774420686.542881,40
1774420686.5595577,40
1774420686.575313,40
1774420686.5921223,39
1774420686.6084104,37
1774420686.6268682,36
1774420686.6429045,34
1774420686.659353,32
1774420686.6741154,30
1774420686.6901133,28
1774420686.7094667,26
1774420686.7261634,25
1774420686.7442405,24
1774420686.7575216,23
1774420686.7737615,22
1774420686.7903354,22
1774420686.814357,22
1774420686.8325403,22
1774420686.8492088,22
1774420686.8598585,22
1774420686.876224,22
1774420686.9012973,22
1774420686.9097188,23
1774420686.9268858,23
1774420686.9425397,23
1774420686.960879,22
1774420686.9761682,22
1774420686.9928405,22
1774420687.0095017,21
1774420687.0257828,21
1774420687.0429392,21
1774420687.0561981,23
1774420687.0763767,28
1774420687.0910704,35
1774420687.1071594,42
1774420687.1234148,51
1774420687.1428182,59
1774420687.1561012,65
1774420687.1761763,68
1774420687.192003,68
1774420687.2096999,67
1774420687.2245433,63
1774420687.2456455,60
1774420687.2618473,56
1774420687.2769415,52
1774420687.294156,49
1774420687.3070872,46
1774420687.32619,44
1774420687.3412323,42
1774420687.3577669,40
1774420687.3737245,40
1774420687.3935084,40
1774420687.4086971,40
1774420687.424138,40
1774420687.4430666,40
1774420687.4565444,40
1774420687.473044,39
1774420687.4931397,37
1774420687.5096507,35
1774420687.5252047,33
1774420687.5517883,31
1774420687.560615,29
1774420687.5769477,28
1774420687.5929024,26
1774420687.6098924,25
1774420687.6267693,24
1774420687.6482997,23
1774420687.6595917,23
1774420687.6763415,22
1774420687.6929097,22
1774420687.710374,22
1774420687.7232382,22
1774420687.7433512,23
1774420687.7594273,23
1774420687.7775612,23
1774420687.7913277,23
1774420687.809295,23
1774420687.8235476,22
1774420687.83953,22
1774420687.8598714,21
1774420687.876825,21
1774420687.894258,22
1774420687.9160194,25
1774420687.9227476,31
1774420687.9418542,38
1774420687.9626882,46
1774420687.9790983,54
1774420687.992834,62
1774420688.0096993,67
1774420688.0263584,69
1774420688.045636,68
1774420688.0596328,66
1774420688.0731564,62
1774420688.0920978,59
1774420688.1112177,56
1774420688.126343,52
1774420688.1421611,49
1774420688.1581259,46
1774420688.1743305,44
1774420688.1900315,42
1774420688.206405,40
1774420688.2232606,40
1774420688.2428808,40
1774420688.25752,40
1774420688.276785,40
1774420688.2938826,40
1774420688.3156865,39
1774420688.3265822,38
1774420688.341161,36
1774420688.3599856,34
1774420688.3846743,32
1774420688.3951309,30
1774420688.4144845,28
1774420688.4257944,26
1774420688.4429178,24
1774420688.4592452,22
1774420688.476267,21
1774420688.4942472,20
1774420688.5120597,19
1774420688.5270412,19
1774420688.540548,19
1774420688.5572124,19
1774420688.5729249,19
1774420688.5930595,19
1774420688.6095712,19
1774420688.6288207,19
1774420688.6395483,19
1774420688.6586568,19
1774420688.6847036,19
1774420688.6929708,19
1774420688.7090929,18
1774420688.7257798,19
1774420688.7442064,20
1774420688.7572405,25
1774420688.7729445,31
1774420688.7928762,40
1774420688.8157847,48
1774420688.8261743,57
1774420688.8441925,64
1774420688.8599982,68
1774420688.8758,70
1774420688.89052,68
1774420688.9133623,66
1774420688.9245822,62
1774420688.945427,59
1774420688.9607065,55
1774420688.97485,52
1774420688.9920945,49
1774420689.0109618,46
1774420689.0256116,43
1774420689.0429168,42
1774420689.0565083,40
1774420689.0748675,40
1774420689.0892959,40
1774420689.1129434,40
1774420689.1227005,40
1774420689.1423829,40
1774420689.156973,39
1774420689.1734912,37
1774420689.192875,36
1774420689.20695,34
1774420689.2247477,31
1774420689.2429585,29
1774420689.25953,27
1774420689.272862,25
1774420689.2929826,24
1774420689.3098228,22
1774420689.3335161,21
1774420689.3429403,20
1774420689.361659,19
1774420689.3763545,19
1774420689.3924427,18
1774420689.4094877,18
1774420689.4266312,19
1774420689.4409165,19
1774420689.4564862,19
1774420689.473634,19
1774420689.4895606,19
1774420689.510993,19
1774420689.5245452,19
1774420689.5428915,19
1774420689.5559547,18
1774420689.5749857,20
1774420689.5928617,23
1774420689.6070793,29
1774420689.6235676,37
1774420689.6428378,45
1774420689.6571288,54
1774420689.6778986,62
1774420689.692229,68
1774420689.716901,70
1774420689.725478,69
1774420689.7477171,67
1774420689.759552,64
1774420689.7775714,60
1774420689.7929447,56
1774420689.8095067,53
1774420689.8264217,50
1774420689.8428948,47
1774420689.8570476,44
1774420689.876243,42
1774420689.889302,41
1774420689.909325,40
1774420689.9246697,40
1774420689.943007,40
1774420689.9574656,40
1774420689.973802,40
1774420689.9929888,40
1774420690.009557,38
1774420690.0274448,37
1774420690.0470006,35
1774420690.0654864,33
1774420690.0757718,31
1774420690.0963845,29
1774420690.107372,27
1774420690.1330311,25
1774420690.1472216,24
1774420690.1598916,22
1774420690.1769063,21
1774420690.1908917,21
1774420690.2072606,20
1774420690.2239175,20
1774420690.2432587,20
1774420690.2561638,20
1774420690.276904,21
1774420690.2921212,21
1774420690.3091946,21
1774420690.324605,21
1774420690.3403223,21
1774420690.3571503,21
1774420690.3736076,21
1774420690.392105,23
1774420690.406572,28
1774420690.424753,34
1774420690.4544406,41
1774420690.4580498,50
1774420690.478261,59
1774420690.4937525,65
1774420690.5081,68
1774420690.5281591,69
1774420690.5428019,67
1774420690.563584,63
1774420690.5748951,60
1774420690.5927744,55
1774420690.6109147,52
1774420690.627726,48
1774420690.6432285,45
1774420690.6597016,42
1774420690.678727,41
1774420690.6900265,40
1774420690.7092242,40
1774420690.7259433,40
1774420690.7420306,40
1774420690.759486,41
1774420690.775227,41
1774420690.7900107,40
1774420690.8093102,40
1774420690.8324323,39
1774420690.8466704,37
1774420690.858173,35
1774420690.876628,33
1774420690.893837,31
1774420690.9082959,29
1774420690.9263856,27
1774420690.9429452,26
1774420690.9592416,25
1774420690.979743,24
1774420690.9938996,23
1774420691.012944,23
1774420691.0265536,23
1774420691.0459094,23
1774420691.0572498,23
1774420691.0767844,23
1774420691.0892262,23
1774420691.1060085,23
1774420691.1258798,23
1774420691.142125,23
1774420691.1595004,25
1774420691.1727388,28
1774420691.189643,34
1774420691.2070608,41
1774420691.2227962,49
1774420691.2442443,58
1774420691.2594519,65
1774420691.2763243,69
1774420691.2965271,71
1774420691.3095295,70
1774420691.3283775,67
1774420691.343661,64
1774420691.3595057,60
1774420691.3762162,57
1774420691.3907976,53
1774420691.407834,50
1774420691.424402,47
1774420691.4457455,45
1774420691.4595053,43
1774420691.475449,42
1774420691.49307,42
1774420691.5076177,42
1774420691.5259538,42
1774420691.5397203,42
1774420691.559466,41
1774420691.5725093,41
1774420691.5906994,40
1774420691.6083403,38
1774420691.625141,36
1774420691.6444252,34
1774420691.6632915,32
1774420691.6754854,30
1774420691.692841,28
1774420691.7071583,27
1774420691.7263305,25
1774420691.7430642,24
1774420691.7639515,23
1774420691.7762623,23
1774420691.793159,23
1774420691.8084617,23
1774420691.8242211,23
1774420691.843224,23
1774420691.8571181,23
1774420691.8761334,23
1774420691.89153,23
1774420691.909478,23
1774420691.924057,24
1774420691.9400718,27
1774420691.9572382,32
1774420691.9756038,39
1774420691.9992073,47
1774420692.0095713,56
1774420692.0272298,64
1774420692.0430183,70
1774420692.0652285,72
1774420692.0762389,72
1774420692.08934,70
1774420692.1108227,67
1774420692.1263568,63
1774420692.143105,60
1774420692.1596224,56
1774420692.1763208,53
1774420692.1915846,50
1774420692.2068748,48
1774420692.2244205,46
1774420692.2475863,44
1774420692.2566502,44
1774420692.2811785,43
1774420692.2892292,43
1774420692.316271,43
1774420692.3275015,42
1774420692.342874,42
1774420692.359746,40
1774420692.3775797,40
1774420692.3929193,38
1774420692.407573,36
1774420692.4268308,34
1774420692.4455838,31
1774420692.4639163,30
1774420692.4810147,28
1774420692.496202,26
1774420692.5089943,25
1774420692.5278783,24
1774420692.539196,23
1774420692.5597637,23
1774420692.5756342,23
1774420692.5927768,23
1774420692.6078787,23
1774420692.6239498,23
1774420692.6400607,24
1774420692.6560879,24
1774420692.6763122,24
1774420692.6897714,23
1774420692.718317,23
1774420692.7230482,24
1774420692.742762,26
1774420692.7570262,31
1774420692.772613,38
1774420692.8019352,46
1774420692.8094463,55
1774420692.8285103,64
1774420692.842922,70
1774420692.8595247,73
1774420692.8786106,74
1774420692.8946896,72
1774420692.9067888,69
1774420692.927826,65
1774420692.9482064,61
1774420692.9615161,58
1774420692.9758537,54
1774420692.9919918,51
1774420693.0070097,49
1774420693.0228493,47
1774420693.0393915,45
1774420693.0565808,44
1774420693.0752263,44
1774420693.09255,44
1774420693.1097317,44
1774420693.1261983,43
1774420693.145644,42
1774420693.1631584,41
1774420693.1724713,40
1774420693.1977289,38
1774420693.206444,36
1774420693.2230122,34
1774420693.2457688,32
1774420693.261126,30
1774420693.2766173,28
1774420693.2903576,27
1774420693.3097286,25
1774420693.3259966,24
1774420693.342377,24
1774420693.3577929,23
1774420693.376115,23
1774420693.3927991,23
1774420693.406025,23
1774420693.424545,23
1774420693.447047,24
1774420693.4596374,24
1774420693.4765396,24
1774420693.492921,24
1774420693.5095644,24
1774420693.5323882,23
1774420693.5415168,23
1774420693.5615518,23
1774420693.5753033,24
1774420693.5968041,27
1774420693.6094663,33
1774420693.6270974,40
1774420693.6433885,50
1774420693.6594925,59
1774420693.6761541,67
1774420693.6911595,73
1774420693.7069952,75
1774420693.7261055,74
1774420693.742917,72
1774420693.7664127,68
1774420693.7769673,64
1774420693.792075,60
1774420693.8115878,57
1774420693.824485,53
1774420693.847712,50
1774420693.8668,47
1774420693.8724296,46
1774420693.899067,44
1774420693.9094844,44
1774420693.9261293,44
1774420693.9428213,44
1774420693.9599264,44
1774420693.9770548,43
1774420693.994508,42
1774420694.0098276,41
1774420694.0258775,40
1774420694.0420303,38
1774420694.05782,35
1774420694.074142,33
1774420694.0899036,31
1774420694.105852,29
1774420694.1262908,27
1774420694.142833,26
1774420694.1595154,25
1774420694.1839492,24
1774420694.189665,23
1774420694.2086,23
1774420694.2337124,23
1774420694.242088,23
1774420694.2572162,23
1774420694.2741914,24
1774420694.2976952,24
1774420694.310833,24
1774420694.322847,24
1774420694.3411393,24
1774420694.3603146,24
1774420694.3767617,24
1774420694.3927412,24
1774420694.4089594,23
1774420694.4243886,23
1774420694.4491594,24
1774420694.4645865,27
1774420694.472516,33
1774420694.4918795,40
1774420694.5202522,50
1774420694.5284069,59
1774420694.543949,68
1774420694.5595984,73
1774420694.5775726,75
1774420694.5979342,74
1774420694.609761,71
1774420694.6276922,68
1774420694.6430879,63
1774420694.664025,59
1774420694.6740444,55
1774420694.6948109,51
1774420694.706969,48
1774420694.7274642,46
1774420694.7429643,45
1774420694.7578604,44
1774420694.7733922,44
1774420694.789086,44
1774420694.8072896,45
1774420694.8229592,45
1774420694.8492067,45
1774420694.8582797,44
1774420694.876174,42
1774420694.8996131,41
1774420694.9094996,40
1774420694.9282024,37
1774420694.9426153,35
1774420694.9606175,33
1774420694.976792,31
1774420694.9934936,29
1774420695.0099459,28
1774420695.0277424,27
1774420695.043216,26
1774420695.0595,25
1774420695.0725074,25
1774420695.095334,25
1774420695.1103868,25
1774420695.126543,26
1774420695.1424198,26
1774420695.1652431,26
1774420695.1745312,27
1774420695.1904237,27
1774420695.2063406,27
1774420695.222854,27
1774420695.244177,26
1774420695.2595582,26
1774420695.2775242,26
1774420695.2962081,28
1774420695.3101907,32
1774420695.3281255,38
1774420695.3448389,46
1774420695.364519,55
1774420695.3754697,64
1774420695.3928566,72
1774420695.411804,76
1774420695.4277835,77
1774420695.4398966,76
1774420695.4597023,73
1774420695.4726827,69
1774420695.4947462,65
1774420695.5064013,61
1774420695.5254977,58
1774420695.547323,54
1774420695.5613806,51
1774420695.5726185,49
1774420695.589018,47
1774420695.609706,46
1774420695.635563,46
1774420695.6496212,46
1774420695.6588602,46
1774420695.6748767,46
1774420695.691005,45
1774420695.7079716,44
1774420695.7313058,43
1774420695.7429461,41
1774420695.7609785,40
1774420695.7764115,38
1774420695.7928796,36
1774420695.8096938,34
1774420695.828051,32
1774420695.8416457,30
1774420695.8594885,28
1774420695.8762312,27
1774420695.890796,26
1774420695.9057088,26
1774420695.9242086,26
1774420695.9427888,26
1774420695.963164,26
1774420695.977522,26
1774420695.9915679,26
1774420696.0059934,27
1774420696.0302098,27
1774420696.0429747,27
1774420696.064506,26
1774420696.0761979,26
1774420696.0955145,27
1774420696.1095839,29
1774420696.1262891,34
1774420696.1435335,41
1774420696.1614633,50
1774420696.1758416,59
1774420696.1916149,67
1774420696.2065477,74
1774420696.2246912,77
1774420696.2397995,77
1774420696.2585104,75
1774420696.2765138,72
1774420696.2920682,68
1774420696.3079216,65
1774420696.3275695,61
1774420696.3402162,58
1774420696.359711,55
1774420696.3763473,52
1774420696.398829,50
1774420696.4096882,48
1774420696.4306676,47
1774420696.446048,46
1774420696.4595375,46
1774420696.4769924,46
1774420696.4937942,45
1774420696.5107365,44
1774420696.5265787,43
1774420696.5395355,42
1774420696.5559762,40
1774420696.5764642,38
1774420696.5910661,36
1774420696.6088803,34
1774420696.6264062,32
1774420696.6431825,30
1774420696.6648104,29
1774420696.6748757,27
1774420696.6921124,26
1774420696.7094235,26
1774420696.7257276,25
1774420696.7428284,25
1774420696.7563064,25
1774420696.7738812,25
1774420696.7981474,25
1774420696.8096027,26
1774420696.8231978,26
1774420696.8408842,26
1774420696.8600266,26
1774420696.873636,25
1774420696.8905644,25
1774420696.9101636,25
1774420696.9263494,26
1774420696.9407017,30
1774420696.958208,36
1774420696.974218,44
1774420696.9902468,53
1774420697.006721,62
1774420697.032037,70
1774420697.0429513,75
1774420697.0608473,76
1774420697.0723436,75
1774420697.0927832,73
1774420697.110721,69
1774420697.1292799,65
1774420697.1409888,62
1774420697.1650996,59
1774420697.1734655,56
1774420697.19122,53
1774420697.2070196,50
1774420697.2262473,48
1774420697.2446284,46
1774420697.260095,45
1774420697.2761502,45
1774420697.292044,45
1774420697.3064845,44
1774420697.3261251,44
1774420697.3406627,43
1774420697.3567116,41
1774420697.3761349,40
1774420697.3966699,38
1774420697.408147,36
1774420697.426668,34
1774420697.4413016,32
1774420697.4662392,30
1774420697.4723318,28
1774420697.4894547,26
1774420697.5055313,25
1774420697.5313592,24
1774420697.5428739,23
1774420697.5580723,23
1774420697.5761583,23
1774420697.593809,23
1774420697.6096435,23
1774420697.6243963,23
1774420697.64496,23
1774420697.6594946,23
1774420697.676437,23
1774420697.6928396,23
1774420697.7059548,23
1774420697.7275178,23
1774420697.7428305,22
1774420697.7595792,22
1774420697.7761662,23
1774420697.7939322,26
1774420697.8085878,31
1774420697.8262193,39
1774420697.842891,48
1774420697.8557985,58
1774420697.8750048,66
1774420697.892929,72
1774420697.9059293,75
1774420697.928546,74
1774420697.938945,72
1774420697.9609537,68
1774420697.976149,65
1774420697.9929428,61
1774420698.0090945,57
1774420698.025411,54
1774420698.0391574,51
1774420698.057014,48
1774420698.0768259,46
1774420698.089065,45
1774420698.1104054,44
1774420698.126865,44
1774420698.1518924,44
1774420698.1655326,43
1774420698.1747603,43
1774420698.1941767,42
1774420698.2066472,41
1774420698.2251067,40
1774420698.2392333,38
1774420698.2577443,36
1774420698.2722757,33
1774420698.292784,31
1774420698.3054543,29
1774420698.3259368,27
1774420698.342031,26
1774420698.3595576,24
1774420698.3738189,23
1774420698.3901353,23
1774420698.4093823,22
1774420698.42634,22
1774420698.441371,22
1774420698.455523,22
1774420698.4811265,22
1774420698.4940915,22
1774420698.5095122,22
1774420698.5276659,23
1774420698.5446227,23
1774420698.5644522,22
1774420698.5764058,22
1774420698.598449,22
1774420698.6095457,21
1774420698.6237485,21
1774420698.6403008,22
1774420698.6572766,26
1774420698.6742847,32
1774420698.6926126,40
1774420698.7081974,48
1774420698.723997,58
1774420698.739098,66
1774420698.7565737,72
1774420698.7732754,74
1774420698.7915618,73
1774420698.8054588,71
1774420698.8276129,68
1774420698.8457696,64
1774420698.8560164,60
1774420698.8761296,56
1774420698.8896482,53
1774420698.9118335,50
1774420698.9275172,47
1774420698.944078,45
1774420698.9632192,44
1774420698.9763381,44
1774420698.9915318,43
1774420699.0087264,43
1774420699.0263925,43
1774420699.040746,43
1774420699.0591612,42
1774420699.0725558,41
1774420699.0893388,40
1774420699.1073577,38
1774420699.130745,36
1774420699.1387727,33
1774420699.1565387,31
1774420699.1801987,29
1774420699.1907377,27
1774420699.2082572,26
1774420699.2224412,25
1774420699.2441108,24
1774420699.2603269,23
1774420699.276206,22
1774420699.2916055,22
1774420699.309463,22
1774420699.329679,22
1774420699.342793,22
1774420699.3569422,22
1774420699.3761997,22
1774420699.3918085,23
1774420699.4073515,23
1774420699.422188,23
1774420699.4400666,23
1774420699.4563444,22
1774420699.4747827,22
1774420699.489736,21
1774420699.509681,21
1774420699.5221791,24
1774420699.5432925,28
1774420699.5595198,36
1774420699.57618,44
1774420699.592821,53
1774420699.609667,63
1774420699.6299508,70
1774420699.642992,73
1774420699.6609602,74
1774420699.6764257,73
1774420699.6948016,70
1774420699.7083077,66
1774420699.7262332,62
1774420699.7430682,58
1774420699.7571154,55
1774420699.7762988,51
1774420699.7931752,49
1774420699.8057537,47
1774420699.8246567,45
1774420699.8391407,44
1774420699.856781,44
1774420699.872054,44
1774420699.8898826,44
1774420699.909394,44
1774420699.9231944,44
1774420699.9419374,43
1774420699.9562542,41
1774420699.9771729,40
1774420699.9911017,38
1774420700.0073256,36
1774420700.0232768,34
1774420700.0418632,32
1774420700.0566745,30
1774420700.0755181,28
1774420700.0910568,27
1774420700.1096287,26
1774420700.127444,25
1774420700.143369,24
1774420700.1608129,24
1774420700.1723435,24
1774420700.1924882,24
1774420700.2064986,24
1774420700.226213,24
1774420700.2397707,24
1774420700.2555313,25
1774420700.2721922,25
1774420700.2928162,25
1774420700.3102627,24
1774420700.3238914,24
1774420700.3492162,24
1774420700.3598864,23
1774420700.376283,23
1774420700.3941965,25
1774420700.406778,29
1774420700.4243624,35
1774420700.4402778,42
1774420700.4604104,51
1774420700.4764237,60
1774420700.4925265,68
1774420700.5072167,72
1774420700.52609,73
1774420700.5408497,72
1774420700.5608165,69
1774420700.5728576,65
1774420700.5988395,60
1774420700.608757,56
1774420700.6364384,52
1774420700.6403468,48
1774420700.6636944,46
1774420700.676127,44
1774420700.6994395,43
1774420700.7064972,43
1774420700.7234416,43
1774420700.7429452,44
1774420700.7559066,44
1774420700.7733614,45
1774420700.7941854,44
1774420700.8094902,44
1774420700.8261566,42
1774420700.8434577,40
1774420700.8596992,40
1774420700.8767846,38
1774420700.890458,36
1774420700.9055932,33
1774420700.922401,32
1774420700.9413047,30
1774420700.9637806,28
1774420700.9761322,27
1774420700.9941134,26
1774420701.0066433,26
1774420701.0278175,25
1774420701.0436292,25
1774420701.0560966,26
1774420701.0824847,26
1774420701.088638,26
1774420701.1116204,26
1774420701.1267009,27
1774420701.1412857,27
1774420701.1655173,27
1774420701.1761823,26
1774420701.192794,26
1774420701.207016,26
1774420701.2261283,27
1774420701.2411518,31
1774420701.2596917,36
1774420701.276557,43
1774420701.288954,52
1774420701.3057106,61
1774420701.3295746,68
1774420701.343945,73
1774420701.3575358,75
1774420701.3800855,74
1774420701.393801,72
1774420701.4113193,68
1774420701.4274776,64
1774420701.439476,61
1774420701.4557314,57
1774420701.4779499,53
1774420701.4894419,51
1774420701.5122123,48
1774420701.526001,47
1774420701.5418704,46
1774420701.557225,45
1774420701.5752032,46
1774420701.590802,46
1774420701.605352,46
1774420701.6261985,46
1774420701.6426885,45
1774420701.6607556,44
1774420701.6773636,42
1774420701.6953855,40
1774420701.7121735,39
1774420701.7263684,36
1774420701.7492082,34
1774420701.7564275,32
1774420701.7764664,30
1774420701.7928534,29
1774420701.8122306,28
1774420701.8247218,27
1774420701.8445492,26
1774420701.8588586,25
1774420701.8722484,25
1774420701.888925,25
1774420701.9082778,25
1774420701.921927,26
1774420701.9403946,26
1774420701.9564102,26
1774420701.972414,26
1774420701.9941463,26
1774420702.0108113,26
1774420702.0281327,26
1774420702.0387256,27
1774420702.0558088,31
1774420702.0785942,38
1774420702.0929081,45
1774420702.1113236,54
1774420702.126176,63
1774420702.142032,70
1774420702.1595304,74
1774420702.177067,76
1774420702.1921766,75
1774420702.2059422,72
1774420702.2235405,69
1774420702.241112,65
1774420702.259765,62
1774420702.2758827,58
1774420702.2918444,55
1774420702.3077915,53
1774420702.3221667,50
1774420702.3398743,49
1774420702.3594868,47
1774420702.375742,47
1774420702.392996,47
1774420702.4158976,47
1774420702.4262793,46
1774420702.439689,46
1774420702.4595587,45
1774420702.4761853,44
1774420702.4887774,42
1774420702.5109715,40
1774420702.5264723,39
1774420702.5441477,37
1774420702.5594666,34
1774420702.5747373,32
1774420702.59288,31
1774420702.6107802,29
1774420702.6241527,28
1774420702.6412938,27
1774420702.6571708,26
1774420702.676264,26
1774420702.6886022,26
1774420702.711433,26
1774420702.7270658,26
1774420702.7503858,26
1774420702.7594903,26
1774420702.7795284,26
1774420702.7942286,26
1774420702.8076303,26
1774420702.826242,25
1774420702.8428864,25
1774420702.8594182,27
1774420702.876329,31
1774420702.895117,37
1774420702.912745,44
1774420702.9234717,53
1774420702.9416459,62
1774420702.9611464,69
1774420702.9771085,74
1774420702.9925072,75
1774420703.0052903,74
1774420703.0245857,72
1774420703.0397902,69
1774420703.0561416,65
1774420703.0850377,62
1774420703.0885224,58
1774420703.1102118,55
1774420703.1219075,52
1774420703.145767,50
1774420703.156899,48
1774420703.1723852,47
1774420703.1930435,46
1774420703.2055633,46
1774420703.223362,46
1774420703.2465231,46
1774420703.2616522,45
1774420703.2762349,44
1774420703.2933939,43
1774420703.3099558,41
1774420703.3258164,40
1774420703.3416405,38
1774420703.3577204,36
1774420703.3730314,33
1774420703.389499,32
1774420703.4059527,30
1774420703.4250252,28
1774420703.4413636,27
1774420703.458675,26
1774420703.4776957,25
1774420703.496852,25
1774420703.5118442,25
1774420703.522176,25
1774420703.548597,25
1774420703.5569983,25
1774420703.5766082,25
1774420703.5916784,25
1774420703.6094005,26
1774420703.626152,25
1774420703.6395614,25
1774420703.6571827,25
1774420703.681526,24
1774420703.6929846,25
1774420703.7059655,29
1774420703.724811,34
1774420703.74291,41
1774420703.7562518,50
1774420703.7756379,59
1774420703.7927873,67
1774420703.809576,72
1774420703.8241706,75
1774420703.8463125,74
1774420703.8571227,72
1774420703.8842354,69
1774420703.888614,65
1774420703.913751,62
1774420703.9244509,58
1774420703.946087,55
1774420703.961911,52
1774420703.9733837,50
1774420703.9925888,48
1774420704.0064948,46
1774420704.0254576,46
1774420704.0413415,45
1774420704.0578508,45
1774420704.076568,45
1774420704.0962062,45
1774420704.1054382,44
1774420704.128299,43
1774420704.1440983,41
1774420704.1605709,40
1774420704.1774895,38
1774420704.1890962,36
1774420704.2057793,33
1774420704.2234635,31
1774420704.2455204,30
1774420704.2604148,28
1774420704.2755089,27
1774420704.289346,26
1774420704.3051403,25
1774420704.3220425,24
1774420704.3428917,24
1774420704.3595152,24
1774420704.376161,24
1774420704.3933165,24
1774420704.4094903,25
1774420704.4257765,25
1774420704.4453747,25
1774420704.4571712,25
1774420704.4791255,25
1774420704.4928174,25
1774420704.5102158,24
1774420704.5311656,24
1774420704.5428905,24
1774420704.5605986,27
1774420704.572271,32
1774420704.5927393,40
1774420704.6094825,48
1774420704.6241014,57
1774420704.6402516,65
1774420704.6572888,71
1774420704.6825814,74
1774420704.6924734,74
1774420704.7093887,72
1774420704.7261388,68
1774420704.7480984,65
1774420704.7595694,61
1774420704.7765005,57
1774420704.79256,54
1774420704.8087752,51
1774420704.8246245,48
1774420704.8407638,47
1774420704.857862,45
1774420704.8718193,45
1774420704.890628,45
1774420704.906869,45
1774420704.9241147,45
1774420704.94291,45
1774420704.962288,44
1774420704.9761477,43
1774420704.9936152,41
1774420705.0098076,40
1774420705.0246038,38
1774420705.0408669,36
1774420705.059526,34
1774420705.076136,32
1774420705.094358,30
1774420705.1086705,29
1774420705.121803,27
1774420705.1465673,26
1774420705.1593874,26
1774420705.1764894,25
1774420705.1929712,25
1774420705.2074087,25
1774420705.2240953,25
1774420705.2428293,26
1774420705.2594187,26
1774420705.2774878,26
1774420705.2963667,26
1774420705.3156583,26
1774420705.326193,26
1774420705.3438935,26
1774420705.3596156,26
1774420705.3736129,25
1774420705.3923526,26
1774420705.4056635,29
1774420705.4262214,34
1774420705.446943,41
1774420705.456356,49
1774420705.4767966,58
1774420705.4884586,66
1774420705.5109253,71
1774420705.5240307,73
1774420705.5430593,73
1774420705.5589342,70
1774420705.5768147,67
1774420705.5929604,63
1774420705.607031,59
1774420705.623024,55
1774420705.6443582,52
1774420705.6586025,49
1774420705.6761513,47
1774420705.7017715,45
1774420705.70961,44
1774420705.7290268,44
1774420705.7423296,44
1774420705.7566104,44
1774420705.7774596,44
1774420705.7887745,44
1774420705.8131347,43
1774420705.825732,42
1774420705.8429372,40
1774420705.855402,39
1774420705.87737,37
1774420705.8896053,35
1774420705.9094837,33
1774420705.9245899,31
1774420705.9390059,29
1774420705.9593782,27
1774420705.9767158,26
1774420705.9908078,25
1774420706.0070548,24
1774420706.0261984,24
1774420706.0393538,24
1774420706.0553656,24
1774420706.0760548,24
1774420706.089571,24
1774420706.1108825,24
1774420706.1286068,25
1774420706.1430066,25
1774420706.1594737,25
1774420706.1761715,24
1774420706.1964247,24
1774420706.2056358,23
1774420706.2242293,24
1774420706.2430098,26
1774420706.2562115,31
1774420706.27619,38
1774420706.2895644,46
1774420706.3064454,55
1774420706.3256056,64
1774420706.340382,70
1774420706.3571944,73
1774420706.374216,74
1774420706.3972037,72
1774420706.4066336,69
1774420706.4263031,66
1774420706.4428883,62
1774420706.4585621,58
1774420706.4727914,55
1774420706.4963684,52
1774420706.506549,49
1774420706.5263221,47
1774420706.5408201,45
1774420706.5614874,44
1774420706.5761511,43
1774420706.5936782,44
1774420706.607988,44
1774420706.623965,44
1774420706.6445563,43
1774420706.6563063,42
1774420706.6761189,41
1774420706.692816,40
1774420706.7075226,38
1774420706.7225058,35
1774420706.7404644,33
1774420706.7566383,31
1774420706.7725365,29
1774420706.7965717,27
1774420706.8153396,26
1774420706.825786,24
1774420706.842747,24
1774420706.859635,23
1774420706.8774607,22
1774420706.8893852,22
1774420706.9105847,22
1774420706.9285069,23
1774420706.9394352,23
1774420706.957444,23
1774420706.9754908,23
1774420706.9910157,24
1774420707.006833,24
1774420707.0233355,23
1774420707.0439897,23
1774420707.0597725,23
1774420707.0756743,24
1774420707.0918343,26
1774420707.1095986,32
1774420707.1238458,39
1774420707.1427486,47
1774420707.1570883,57
1774420707.1731977,66
1774420707.1920438,72
1774420707.2083995,75
1774420707.2235947,75
1774420707.2419438,73
1774420707.2655115,69
1774420707.2760687,65
1774420707.2981226,62
1774420707.3097851,58
1774420707.3233662,54
1774420707.342995,51
1774420707.3595562,49
1774420707.376866,47
1774420707.3932207,45
1774420707.4093707,45
1774420707.4261773,45
1774420707.4420776,45
1774420707.4558904,45
1774420707.474022,45
1774420707.4900062,44
1774420707.506073,43
1774420707.5220544,41
1774420707.5386446,40
1774420707.566586,38
1774420707.5775223,36
1774420707.6001134,34
1774420707.6109068,32
1774420707.6319728,30
1774420707.638705,29
1774420707.6651578,28
1774420707.6774461,27
1774420707.6945899,26
1774420707.711772,25
1774420707.7260995,25
1774420707.7428591,25
1774420707.7606547,25
1774420707.7753534,26
1774420707.7929986,26
1774420707.8081262,26
1774420707.8241754,26
1774420707.840256,26
1774420707.8595092,26
1774420707.8720613,26
1774420707.8979325,26
1774420707.9049692,26
1774420707.9284205,29
1774420707.9483223,34
1774420707.9595964,40
1774420707.9761975,49
1774420707.9987822,58
1774420708.0112443,66
1774420708.0307333,72
1774420708.0463006,75
1774420708.0596628,74
1774420708.078828,72
1774420708.0946848,69
1774420708.1084044,65
1774420708.1229422,61
1774420708.1423204,57
1774420708.1581619,54
1774420708.174335,51
1774420708.1904378,48
1774420708.2066836,46
1774420708.2226036,45
1774420708.2384937,45
1774420708.2594838,45
1774420708.2763712,45
1774420708.2942214,45
1774420708.304914,45
1774420708.3262353,45
1774420708.344443,43
1774420708.3652625,42
1774420708.375656,40
1774420708.39307,39
1774420708.4108036,37
1774420708.425405,34
1774420708.4416027,32
1774420708.4622972,31
1774420708.4764388,29
1774420708.491146,28
1774420708.5065343,27
1774420708.5255275,27
1774420708.541174,26
1774420708.557398,26
1774420708.5733466,26
1774420708.5912292,27
1774420708.6094627,27
1774420708.6234012,27
1774420708.6416502,27
1774420708.6637123,27
1774420708.6762373,26
1774420708.697615,26
1774420708.7099066,26
1774420708.723943,29
1774420708.7431417,33
1774420708.7594836,40
1774420708.7767463,48
1774420708.7949162,56
1774420708.8096895,65
1774420708.826755,71
1774420708.838785,74
1774420708.8595827,74
1774420708.8764634,72
1774420708.8930671,69
1774420708.9084184,65
1774420708.924962,62
1774420708.940788,58
1774420708.9624746,55
1774420708.972876,52
1774420708.9897244,49
1774420709.0082018,47
1774420709.033086,45
1774420709.0445013,44
1774420709.0606134,44
1774420709.0753412,44
1774420709.092804,44
1774420709.104964,43
1774420709.1261954,43
1774420709.13851,42
1774420709.1668475,40
1774420709.1717844,39
1774420709.1961849,37
1774420709.205723,35
1774420709.2231972,33
1774420709.2441988,31
1774420709.259836,29
1774420709.2761414,27
1774420709.29283,26
1774420709.3067408,25
1774420709.3228407,24
1774420709.3427713,23
1774420709.355529,23
1774420709.3762763,23
1774420709.3955126,24
1774420709.4058485,24
1774420709.4348454,24
1774420709.4437895,24
1774420709.4659903,24
1774420709.4720364,24
1774420709.4970906,24
1774420709.5057786,24
1774420709.5265012,26
1774420709.5394118,30
1774420709.5637808,37
1774420709.5769928,44
1774420709.592861,53
1774420709.6095245,62
1774420709.624351,69
1774420709.6435738,73
1774420709.6602263,74
1774420709.6715107,72
1774420709.688369,69
1774420709.7048895,66
1774420709.7247186,62
1774420709.7441595,58
1774420709.7608688,55
1774420709.778522,51
1774420709.7994704,49
1774420709.8081949,46
1774420709.8281586,44
1774420709.84084,43
1774420709.8595736,43
1774420709.87308,43
1774420709.8929255,43
1774420709.9057813,43
1774420709.926854,42
1774420709.9429073,41
1774420709.959515,40
1774420709.9751987,39
1774420709.990969,37
1774420710.0067835,35
1774420710.0252528,33
1774420710.0385752,31
1774420710.055087,29
1774420710.0773895,27
1774420710.0966089,25
1774420710.1088312,24
1774420710.133554,23
1774420710.1443627,22
1774420710.1608696,22
1774420710.1759655,22
1774420710.1964636,22
1774420710.2054367,22
1774420710.2267287,22
1774420710.2442193,23
1774420710.2605555,23
1774420710.2767773,23
1774420710.2927208,23
1774420710.3048706,23
1774420710.3245738,23
1774420710.340625,22
1774420710.3640952,22
1774420710.3727438,23
1774420710.3932073,26
1774420710.4095998,31
1774420710.428607,39
1774420710.4442039,48
1774420710.459658,58
1774420710.4775028,67
1774420710.4968748,73
1774420710.5095005,76
1774420710.5228996,75
1774420710.5391114,73
1774420710.564282,69
1774420710.5755086,65
1774420710.5928214,61
1774420710.6097827,57
1774420710.6261532,53
1774420710.641842,50
1774420710.6593578,47
1774420710.6716828,45
1774420710.6954625,44
1774420710.704867,43
1774420710.7287428,43
1774420710.7429256,44
1774420710.756621,44
1774420710.776659,44
1774420710.792897,43
1774420710.8107834,42
1774420710.821494,41
1774420710.8435652,40
1774420710.8596132,38
1774420710.8769674,35
1774420710.8930402,33
1774420710.9065163,31
1774420710.9294193,29
1774420710.9427788,27
1774420710.9562755,26
1774420710.977638,25
1774420710.9934826,24
1774420711.005088,23
1774420711.0257008,23
1774420711.041586,23
1774420711.057576,23
1774420711.0721538,24
1774420711.0904984,24
1774420711.1047795,25
1774420711.1353602,25
1774420711.139645,25
1774420711.1637838,25
1774420711.1764033,25
1774420711.1898081,25
1774420711.207583,25
1774420711.222909,25
1774420711.2484078,28
1774420711.2580018,33
1774420711.2740452,40
1774420711.2928574,48
1774420711.307645,58
1774420711.3234844,66
1774420711.3448925,72
1774420711.360183,75
1774420711.3764334,75
1774420711.392732,72
1774420711.4084883,69
1774420711.421437,64
1774420711.4407005,60
1774420711.4564104,55
1774420711.4726555,51
1774420711.4889815,48
1774420711.5047584,45
1774420711.5296686,43
1774420711.5399246,43
1774420711.5594513,43
1774420711.5762668,43
1774420711.6003869,44
1774420711.6097052,45
1774420711.6260526,45
1774420711.6455472,44
1774420711.6636047,43
1774420711.6758025,42
1774420711.6910872,40
1774420711.704936,39
1774420711.7239418,36
1774420711.742814,34
1774420711.756267,32
1774420711.774599,30
1774420711.7916517,28
1774420711.808163,27
1774420711.8227415,26
1774420711.8386064,25
1774420711.863995,25
1774420711.8735425,25
1774420711.893932,25
1774420711.9047022,25
1774420711.9326553,25
1774420711.938322,26
1774420711.9556823,26
1774420711.9733143,26
1774420711.9974694,26
1774420712.011297,26
1774420712.0276465,27
1774420712.043581,31
1774420712.0612128,36
1774420712.073318,43
1774420712.094049,52
1774420712.1166568,61
1774420712.1275275,69
1774420712.1405036,74
1774420712.1594622,76
1774420712.17639,75
1774420712.189342,72
1774420712.2054324,68
1774420712.2227466,64
1774420712.2416515,60
1774420712.2594743,56
1774420712.2720542,53
1774420712.2900193,50
1774420712.3046832,47
1774420712.3273458,45
1774420712.3381317,44
1774420712.3623233,44
1774420712.3738804,44
1774420712.3940344,44
1774420712.4094348,45
1774420712.421833,45
1774420712.442375,44
1774420712.4595408,43
1774420712.4741602,41
1774420712.4903443,40
1774420712.5062318,38
1774420712.5221837,36
1774420712.5424316,33
1774420712.5552018,31
1774420712.5762317,29
1774420712.5928383,28
1774420712.6098266,26
1774420712.6261876,25
1774420712.6390026,24
1774420712.6594408,24
1774420712.6723218,24
1774420712.6929889,24
1774420712.704683,24
1774420712.7302876,25
1774420712.7429924,25
1774420712.7607012,25
1774420712.7777207,25
1774420712.7946124,25
1774420712.8094351,26
1774420712.825007,29
1774420712.8383536,35
1774420712.8594284,42
1774420712.872907,51
1774420712.8903012,60
1774420712.9093943,68
1774420712.9227643,74
1774420712.9383268,76
1774420712.9617329,75
1774420712.9759214,73
1774420712.9929779,69
1774420713.0050454,65
1774420713.027829,61
1774420713.039997,57
1774420713.0652516,54
1774420713.072074,51
1774420713.0925653,48
1774420713.1048346,46
1774420713.12914,45
1774420713.1429486,44
1774420713.1606033,44
1774420713.1729434,44
1774420713.1919825,44
1774420713.2063446,44
1774420713.2238317,44
1774420713.248177,42
1774420713.2547863,41
1774420713.2713945,40
1774420713.2915893,38
1774420713.3098123,35
1774420713.3263,33
1774420713.3399005,31
1774420713.3547711,29
1774420713.372156,27
1774420713.394193,26
1774420713.4097724,25
1774420713.4275692,24
1774420713.4410324,24
1774420713.4594011,23
1774420713.4725077,24
1774420713.4927902,24
1774420713.506595,24
1774420713.5257363,24
1774420713.5385628,25
1774420713.5566554,24
1774420713.5724864,24
1774420713.5895553,25
1774420713.6090431,27
1774420713.6275349,32
1774420713.6447852,39
1774420713.6613817,46
1774420713.676299,56
1774420713.6880348,65
1774420713.70518,71
1774420713.721615,75
1774420713.7410655,76
1774420713.7564971,74
1774420713.7762463,71
1774420713.794899,67
1774420713.8106282,63
1774420713.8263452,58
1774420713.840235,55
1774420713.8586264,51
1774420713.872816,48
1774420713.8927813,46
1774420713.906263,44
1774420713.9245265,43
1774420713.9387014,43
1774420713.9546397,43
1774420713.9762957,43
1774420714.001589,43
1774420714.010219,43
1774420714.021451,42
1774420714.0494888,40
1774420714.0568914,40
1774420714.0727398,38
1774420714.0942867,35
1774420714.1046727,33
1774420714.1262171,31
1774420714.1417456,29
1774420714.161667,27
1774420714.1761117,26
1774420714.1937106,24
1774420714.2058973,23
1774420714.2256234,23
1774420714.240799,23
1774420714.2579536,23
1774420714.2738647,23
1774420714.2902312,24
1774420714.3048148,24
1774420714.3212514,24
1774420714.3533483,24
1774420714.3549411,24
1774420714.3793948,25
1774420714.3928566,26
1774420714.4099884,29
1774420714.4275596,35
1774420714.4428005,42
1774420714.4608338,51
1774420714.4754152,60
1774420714.493604,68
1774420714.5061693,73
1774420714.5274246,75
1774420714.542783,74
1774420714.5609682,71
1774420714.576261,67
1774420714.5928342,63
1774420714.6092813,59
1774420714.6242363,54
1774420714.6405838,51
1774420714.6548831,48
1774420714.672446,45
1774420714.6929736,43
1774420714.7054107,43
1774420714.726945,43
1774420714.7460551,43
1774420714.7594433,44
1774420714.776402,44
1774420714.7913513,44
1774420714.815051,43
1774420714.8275683,42
1774420714.8427284,40
1774420714.8608387,39
1774420714.8785193,37
1774420714.8878818,35
1774420714.9098344,33
1774420714.9232605,31
1774420714.9438992,29
1774420714.9583797,27
1774420714.973543,26
1774420714.9899983,25
1774420715.0055535,24
1774420715.027555,24
1774420715.0379717,24
1774420715.0698378,24
1774420715.0737867,25
1774420715.095068,25
1774420715.1089334,25
1774420715.1217468,25
1774420715.1457217,25
1774420715.1563423,25
1774420715.1761937,26
1774420715.194231,29
1774420715.205714,34
1774420715.224059,40
1774420715.2400002,49
1774420715.25987,58
1774420715.2762232,67
1774420715.2939167,72
1774420715.3086605,75
1774420715.3261948,75
1774420715.3404787,73
1774420715.356614,69
1774420715.3727157,65
1774420715.388694,60
1774420715.4045389,56
1774420715.429569,52
1774420715.441994,49
1774420715.455114,47
1774420715.471354,45
1774420715.4923759,44
1774420715.5232904,43
1774420715.52336,44
1774420715.5422158,44
1774420715.5596316,44
1774420715.580409,44
1774420715.5928092,44
1774420715.6096227,42
1774420715.6251202,41
1774420715.641361,40
1774420715.6585698,38
1774420715.676079,35
1774420715.689092,33
1774420715.707793,31
1774420715.7300622,29
1774420715.7398722,27
1774420715.7559304,26
1774420715.7720222,24
1774420715.7879632,24
1774420715.8098667,23
1774420715.8261573,23
1774420715.8425956,23
1774420715.8558345,24
1774420715.875344,24
1774420715.888288,24
1774420715.9094434,24
1774420715.9225905,24
1774420715.942974,24
1774420715.9545372,24
1774420715.976264,26
1774420715.9927342,29
1774420716.004787,36
1774420716.026815,43
1774420716.0480902,52
1774420716.0577683,62
1774420716.074963,69
1774420716.0994487,74
1774420716.1065328,76
1774420716.1224456,75
1774420716.1384635,73
1774420716.154602,69
1774420716.176061,65
1774420716.1887538,61
1774420716.2070231,57
1774420716.2234619,53
1774420716.242816,50
1774420716.2657099,48
1774420716.2758777,46
1774420716.289005,44
1774420716.3138893,44
1774420716.3211353,44
1774420716.3434362,44
1774420716.3584805,44
1774420716.3743773,44
1774420716.392849,43
1774420716.4069347,42
1774420716.4258807,40
1774420716.4409647,39
1774420716.4570808,37
1774420716.4729989,35
1774420716.4890032,32
1774420716.5049284,30
1774420716.5260472,28
1774420716.5427215,27
1774420716.5597029,25
1774420716.576326,24
1774420716.5928364,24
1774420716.607146,24
1774420716.6249804,23
1774420716.6384661,24
1774420716.6566672,24
1774420716.6811314,24
1774420716.688108,25
1774420716.7079406,25
1774420716.7258797,25
1774420716.7488286,25
1774420716.756013,25
1774420716.778695,27
1774420716.793068,31
1774420716.808936,38
1774420716.8244555,46
1774420716.8425071,55
1774420716.8565516,64
1774420716.8724847,71
1774420716.8928025,75
1774420716.9047296,76
1774420716.927372,74
1774420716.9428484,71
1774420716.9657414,68
1774420716.9761229,64
1774420716.993136,60
1774420717.0107892,56
1774420717.0215938,52
1774420717.0404553,49
1774420717.056531,47
1774420717.0803432,45
1774420717.0882742,44
1774420717.1110368,44
1774420717.1265311,44
1774420717.143135,44
1774420717.156105,44
1774420717.1751013,43
1774420717.1892924,42
1774420717.2056599,41
1774420717.2261267,40
1774420717.246071,38
1774420717.254575,36
1774420717.2864158,33
1774420717.296687,31
1774420717.3050323,29
1774420717.326505,28
1774420717.340096,26
1774420717.3594885,25
1774420717.374587,24
1774420717.3920965,24
1774420717.4095547,24
1774420717.4240718,24
1774420717.4429805,24
1774420717.4572206,24
1774420717.477469,25
1774420717.487791,25
1774420717.5096033,25
1774420717.5231514,25
1774420717.541497,25
1774420717.5576065,25
1774420717.5775037,28
1774420717.5949433,32
1774420717.6124058,39
1774420717.6216013,47
1774420717.639434,56
1774420717.6583624,65
1774420717.6825528,71
1774420717.7016091,74
1774420717.7155693,74
1774420717.7281148,72
1774420717.7441285,68
1774420717.7615552,64
1774420717.7760515,60
1774420717.7930765,56
1774420717.8127441,52
1774420717.82881,48
1774420717.8441343,46
1774420717.8559031,44
1774420717.8763645,43
1774420717.8882408,43
1774420717.9088354,43
1774420717.9211419,44
1774420717.9407196,44
1774420717.954371,44
1774420717.9719944,44
1774420717.9878175,42
1774420718.0047114,41
1774420718.0270233,40
1774420718.0428083,38
1774420718.0602622,36
1774420718.0728967,33
1774420718.0907917,31
1774420718.1117074,30
1774420718.1280906,28
1774420718.1430573,27
1774420718.1589608,26
1774420718.1762478,26
1774420718.188024,26
1774420718.2057712,26
1774420718.2216275,26
1774420718.2437022,26
1774420718.2562392,27
1774420718.2735686,27
1774420718.291345,27
1774420718.3204055,27
1774420718.321005,28
1774420718.3393257,30
1774420718.3552947,34
1774420718.3711898,40
1774420718.3928802,48
1774420718.4087982,57
1774420718.4236124,65
1774420718.4427712,71
1774420718.4594762,75
1774420718.4762895,75
1774420718.4972823,73
1774420718.5093942,69
1774420718.528603,67
1774420718.5394537,63
1774420718.5588665,59
1774420718.5757883,56
1774420718.5935216,52
1774420718.6101997,50
1774420718.6263535,46
1774420718.642166,44
1774420718.6583226,44
1774420718.67419,44
1774420718.6898441,44
1774420718.706675,44
1774420718.7222068,44
1774420718.7380278,44
1774420718.7543948,43
1774420718.7850266,41
1774420718.7971103,40
1774420718.804693,38
1774420718.8277926,36
1774420718.8441293,34
1774420718.8589451,32
1774420718.8726306,30
1774420718.8930595,28
1774420718.9107783,27
1774420718.9261196,26
1774420718.942993,26
1774420718.9594169,26
1774420718.9761286,25
1774420718.9933305,26
1774420719.0094104,26
1774420719.025162,26
1774420719.0412169,26
1774420719.056603,26
1774420719.073255,26
1774420719.089239,29
1774420719.1052363,33
1774420719.120987,40
1774420719.1426826,47
1774420719.159766,56
1774420719.1755059,64
1774420719.189412,70
1774420719.2072375,74
1774420719.2294323,74
1774420719.2413046,72
1774420719.2643476,69
1774420719.2762125,65
1774420719.2932932,61
1774420719.3085725,58
1774420719.328096,55
1774420719.342807,52
1774420719.3600564,49
1774420719.3831286,47
1774420719.392459,45
1774420719.4071348,44
1774420719.4225354,43
1774420719.4404933,43
1774420719.4573042,43
1774420719.4723725,43
1774420719.487986,42
1774420719.5131295,41
1774420719.5215065,40
1774420719.5395746,39
1774420719.5545878,37
1774420719.573144,35
1774420719.590506,33
1774420719.6144357,30
1774420719.626304,29
1774420719.6429644,27
1774420719.6624205,26
1774420719.6762245,25
1774420719.6941152,24
1774420719.710199,24
1774420719.7258465,23
1774420719.7443554,24
1774420719.7617438,24
1774420719.7733383,24
1774420719.789495,24
1774420719.8094113,24
1774420719.8300357,24
1774420719.8431396,24
1774420719.857614,25
1774420719.8784955,28
1774420719.8907697,33
1774420719.9050746,40
1774420719.9213161,49
1774420719.938145,58
1774420719.9596992,66
1774420719.9762049,71
1774420719.988649,73
1774420720.0070405,73
1774420720.0223038,71
1774420720.0441902,67
1774420720.0602882,63
1774420720.076618,59
1774420720.0929444,56
1774420720.1075656,52
1774420720.1236293,49
1774420720.1419115,47
1774420720.1556847,45
1774420720.1752264,43
1774420720.18798,43
1774420720.2051153,42
1774420720.2241752,42
1774420720.2438676,42
1774420720.2598429,42
1774420720.27401,41
1774420720.2904809,40
1774420720.3117878,39
1774420720.3264306,37
1774420720.3440828,35
1774420720.3566742,33
1774420720.3718388,31
1774420720.394807,29
1774420720.4081166,27
1774420720.426688,26
1774420720.441704,24
1774420720.457744,23
1774420720.4736145,23
1774420720.489803,22
1774420720.505713,22
1774420720.5215573,23
1774420720.5428238,23
1774420720.5608983,23
1774420720.5761669,23
1774420720.591559,24
1774420720.610975,24
1774420720.624729,23
1774420720.649544,23
1774420720.6566458,24
1774420720.6768186,27
1774420720.6894302,33
1774420720.7096643,40
1774420720.722174,49
1774420720.7414234,58
1774420720.7593896,66
1774420720.773052,71
1774420720.7936292,74
1774420720.8108695,73
1774420720.8218148,70
1774420720.8416405,67
1774420720.857606,63
1774420720.8711295,59
1774420720.889601,55
1774420720.9055808,51
1774420720.9216835,48
1774420720.9376585,46
1774420720.9596272,44
1774420720.9800005,42
1774420720.992596,42
1774420721.0102646,42
1774420721.0225472,42
1774420721.040348,42
1774420721.0589788,42
1774420721.080613,41
1774420721.0923,40
1774420721.1047993,39
1774420721.1244829,37
1774420721.14469,35
1774420721.1594977,33
1774420721.1763327,31
1774420721.1892755,29
1774420721.204829,27
1774420721.221339,25
1774420721.242392,24
1774420721.2599785,23
1774420721.27684,22
1774420721.288942,22
1774420721.3046474,22
1774420721.322339,22
1774420721.3465207,22
1774420721.359999,23
1774420721.3752284,23
1774420721.3989253,23
1774420721.409406,23
1774420721.434904,23
1774420721.4379241,23
1774420721.459087,23
1774420721.474911,24
1774420721.4882197,27
1774420721.5124896,33
1774420721.5261335,40
1774420721.537684,50
1774420721.56038,59
1774420721.576433,67
1774420721.5926943,72
1774420721.6087515,74
1774420721.621389,73
1774420721.6405566,71
1774420721.6580372,67
1774420721.6774688,62
1774420721.6964273,58
1774420721.709501,54
1774420721.726108,50
1774420721.7427993,47
1774420721.762875,45
1774420721.7750273,43
1774420721.7887728,42
1774420721.809559,42
1774420721.8214567,42
1774420721.8428447,43
1774420721.8567357,43
1774420721.8763492,43
1774420721.8942726,42
1774420721.906571,41
1774420721.9271493,40
1774420721.942969,38
1774420721.9592507,36
1774420721.9752672,34
1774420721.991256,32
1774420722.007357,30
1774420722.0231862,28
1774420722.039221,26
1774420722.055384,25
1774420722.071139,24
1774420722.0963035,23
1774420722.1093614,23
1774420722.1315808,23
1774420722.1427636,24
1774420722.159347,24
1774420722.1732514,24
1774420722.1907132,25
1774420722.2052693,25
1774420722.2244947,25
1774420722.242702,25
1774420722.258653,25
1774420722.2766364,26
1774420722.3012702,29
1774420722.3042524,34
1774420722.3347623,41
1774420722.3374507,49
1774420722.3576288,58
1774420722.3718178,66
1774420722.392825,72
1774420722.4087198,74
1774420722.4217684,73
1774420722.4375854,70
1774420722.464059,66
1774420722.4775174,61
1774420722.4959445,56
1774420722.5165417,52
1774420722.528373,48
1774420722.5428426,45
1774420722.5595503,43
1774420722.574906,41
1774420722.5941312,41
1774420722.6092439,41
1774420722.625185,42
1774420722.6419816,43
1774420722.6590343,43
1774420722.6732733,43
1774420722.6926901,43
1774420722.704368,41
1774420722.7239647,40
1774420722.7395449,39
1774420722.7566679,36
1774420722.7714052,34
1774420722.7990513,32
1774420722.8041966,30
1774420722.8247504,28
1774420722.842828,26
1774420722.8563166,25
1774420722.8761878,24
1774420722.899095,24
1774420722.909826,24
1774420722.9214933,24
1774420722.9470866,24
1774420722.9558673,24
1774420722.9723177,24
1774420722.9916801,25
1774420723.0095568,25
1774420723.0261106,25
1774420723.042997,25
1774420723.0587714,28
1774420723.073408,32
1774420723.0931032,39
1774420723.1041348,47
1774420723.1214588,56
1774420723.1377776,64
1774420723.168188,70
1774420723.1760988,73
1774420723.1896484,74
1774420723.205796,71
1774420723.226321,68
1774420723.2378032,63
1774420723.260147,59
1774420723.2726328,55
1774420723.295947,51
1774420723.310885,48
1774420723.3263795,46
1774420723.344105,44
1774420723.3594937,42
1774420723.3775468,42
1774420723.3923554,42
1774420723.4050744,42
1774420723.426206,43
1774420723.4394572,43
1774420723.4557154,42
1774420723.4754207,41
1774420723.4875677,40
1774420723.5049531,39
1774420723.526574,37
1774420723.5429697,35
1774420723.5601053,32
1774420723.576155,30
1774420723.599361,28
1774420723.6064591,27
1774420723.6313863,25
1774420723.638214,24
1774420723.6581557,24
1774420723.6760397,23
1774420723.6953828,23
1774420723.7043388,23
1774420723.7227783,24
1774420723.7428951,24
1774420723.7596638,24
1774420723.7755332,24
1774420723.7914844,24
1774420723.8074994,24
1774420723.8234627,26
1774420723.841714,30
1774420723.8594246,37
1774420723.8725615,44
1774420723.9038398,53
1774420723.904268,62
1774420723.9341526,69
1774420723.942872,73
1774420723.9596727,74
1774420723.9761899,73
1774420723.987914,70
1774420724.008953,66
1774420724.0273793,61
1774420724.0432336,57
1774420724.0621316,54
1774420724.0770168,50
1774420724.096651,47
1774420724.10964,45
1774420724.1260877,43
1774420724.1430335,43
1774420724.1565058,42
1774420724.1725066,42
1774420724.190374,43
1774420724.204757,43
1774420724.2224035,42
1774420724.2423604,42
1774420724.2584052,40
1774420724.274382,39
1774420724.2888496,37
1774420724.3045762,35
1774420724.3342552,33
1774420724.341959,31
1774420724.355092,29
1774420724.373099,27
1774420724.3928127,25
1774420724.4094179,24
1774420724.4262962,23
1774420724.4614527,23
1774420724.4616308,23
1774420724.4756553,23
1774420724.4943595,23
1774420724.5103557,24
1774420724.5260468,24
1774420724.5418868,24
1774420724.557888,24
1774420724.5738373,24
1774420724.589822,25
1774420724.608109,28
1774420724.6262534,34
1774420724.64241,41
1774420724.6619406,50
1774420724.676043,59
1774420724.6940603,66
1774420724.704258,72
1774420724.7261717,73
1774420724.7373528,73
1774420724.756365,70
1774420724.777089,66
1774420724.7978618,62
1774420724.812107,58
1774420724.8258095,54
1774420724.8423007,51
1774420724.8618035,48
1774420724.8729565,45
1774420724.8936908,43
1774420724.9097874,42
1774420724.9251986,42
1774420724.9418707,42
1774420724.9569082,42
1774420724.9728734,42
1774420724.988895,42
1774420725.0051315,41
1774420725.0209312,40
1774420725.0430484,39
1774420725.0625944,37
1774420725.079584,35
1774420725.0967689,33
1774420725.109678,31
1774420725.126324,29
1774420725.1376884,27
1774420725.1643443,26
1774420725.173052,24
1774420725.189408,24
1774420725.2080536,23
1774420725.2263503,23
1774420725.2372997,23
1774420725.263566,23
1774420725.2761443,23
1774420725.292146,24
1774420725.3082159,24
1774420725.3241696,24
1774420725.3403387,24
1774420725.356148,24
1774420725.380393,26
1774420725.3894107,30
1774420725.4051797,36
1774420725.4298384,44
1774420725.4407387,52
1774420725.4604247,61
1774420725.4727137,67
1774420725.4927378,71
1774420725.5077806,71
1774420725.5261998,69
1774420725.537505,66
1774420725.5619793,62
1774420725.5735254,58
1774420725.597688,53
1774420725.60671,50
1774420725.6262217,46
1774420725.6430821,44
1774420725.6585748,42
1774420725.6748428,41
1774420725.6896484,40
1774420725.7151728,40
1774420725.722661,41
1774420725.7388406,41
1774420725.7565947,41
1774420725.7714536,41
1774420725.7884035,40
1774420725.807718,39
1774420725.828289,37
1774420725.841483,35
1774420725.8647604,33
1774420725.8718624,31
1774420725.8965375,29
1774420725.9067285,28
1774420725.9296682,26
1774420725.9416528,25
1774420725.9615684,24
1774420725.9712253,24
1774420725.992836,23
1774420726.0069559,23
1774420726.0261173,23
1774420726.042787,23
1774420726.0570982,23
1774420726.0735304,23
1774420726.0892434,23
1774420726.1053145,23
1774420726.1213353,24
1774420726.1378472,27
1774420726.1595573,33
1774420726.17607,40
1774420726.1884484,47
1774420726.206349,56
1774420726.230163,63
1774420726.2400312,68
1774420726.2595844,70
1774420726.2710052,69
1774420726.2927308,66
1774420726.308346,63
1774420726.3210926,59
1774420726.3419871,55
1774420726.354453,51
1774420726.3717246,48
1774420726.3931022,45
1774420726.4052224,42
1774420726.4251077,41
1774420726.4426446,40
1774420726.4639013,40
1774420726.4722583,40
1774420726.490383,40
1774420726.5043137,40
1774420726.523733,40
1774420726.5406213,40
1774420726.5682733,39
1774420726.5722768,37
1774420726.5928452,36
1774420726.6080916,33
1774420726.627076,31
1774420726.6417985,29
1774420726.6562114,27
1774420726.6736698,26
1774420726.6942835,24
1774420726.7041798,23
1774420726.7256036,22
1774420726.7372334,22
1774420726.7595456,22
1774420726.7759693,22
1774420726.791945,22
1774420726.8067846,22
1774420726.8238556,22
1774420726.8401573,22
1774420726.8570752,22
1774420726.8715847,22
1774420726.8885481,25
1774420726.9101257,30
1774420726.9274123,37
1774420726.9460363,44
1774420726.9594703,53
1774420726.9760485,61
1774420726.9924202,67
1774420727.0048463,70
1774420727.0273676,70
1774420727.0430002,68
1774420727.0607555,65
1774420727.075807,61
1774420727.092762,57
1774420727.106384,54
1774420727.123918,50
1774420727.1372309,47
1774420727.1544168,45
1774420727.1725547,42
1774420727.190489,41
1774420727.2055273,40
1774420727.2211251,40
1774420727.2458413,40
1774420727.2566044,41
1774420727.2756917,40
1774420727.2908762,40
1774420727.3161683,40
1774420727.326174,38
1774420727.3428752,37
1774420727.3594124,35
1774420727.3758519,32
1774420727.3941069,30
1774420727.40605,28
1774420727.4262123,26
1774420727.4400764,25
1774420727.461014,24
1774420727.4731448,23
1774420727.492004,22
1774420727.5045047,22
1774420727.5249908,22
1774420727.537624,22
1774420727.5568182,22
1774420727.5761216,22
1774420727.5890536,22
1774420727.608054,22
1774420727.6211653,22
1774420727.643447,23
1774420727.6589522,25
1774420727.6780577,30
1774420727.690824,36
1774420727.7042294,44
1774420727.7225723,53
1774420727.7385793,61
1774420727.7608006,68
1774420727.773765,71
1774420727.7959256,71
1774420727.8097901,69
1774420727.821358,66
1774420727.8400667,62
1774420727.8578706,58
1774420727.8720202,55
1774420727.8918269,51
1774420727.9050715,48
1774420727.9281664,45
1774420727.9391766,43
1774420727.9555466,42
1774420727.9715512,41
1774420727.98752,41
1774420728.0044115,41
1774420728.0226457,41
1774420728.0404863,41
1774420728.0594308,41
1774420728.0795882,40
1774420728.0896406,39
1774420728.1094666,37
1774420728.1279767,35
1774420728.143032,33
1774420728.1573725,31
1774420728.1760368,29
1774420728.1927662,28
1774420728.2051032,26
1774420728.2243116,25
1774420728.2416136,24
1774420728.2589839,23
1774420728.2752755,23
1774420728.2937136,23
1774420728.3063593,23
1774420728.3222563,23
1774420728.3381913,24
1774420728.3550382,24
1774420728.3706322,24
1774420728.3922508,24
1774420728.4063776,24
1774420728.4260302,24
1774420728.4450107,25
1774420728.454337,29
1774420728.4788017,35
1774420728.4941707,42
1774420728.5063684,51
1774420728.5274649,60
1774420728.5429456,67
1774420728.5595818,70
1774420728.573628,71
1774420728.5930984,69
1774420728.608823,66
1774420728.6246786,62
1774420728.6402838,58
1774420728.6558154,54
1774420728.6764205,50
1774420728.6877394,47
1774420728.7044036,44
1774420728.7264721,42
1774420728.7427146,41
1774420728.759396,41
1774420728.7832294,41
1774420728.7927344,42
1774420728.8143425,42
1774420728.827584,42
1774420728.846255,41
1774420728.8612947,40
1774420728.876368,40
1774420728.8930373,38
1774420728.907636,36
1774420728.9362235,34
1774420728.9429622,32
1774420728.9548175,30
1774420728.9742894,28
1774420728.9905179,26
1774420729.0063658,25
1774420729.0262015,24
1774420729.038499,24
1774420729.0547073,23
1774420729.0744443,23
1774420729.1023731,24
1774420729.1095748,24
1774420729.1214423,24
1774420729.13748,25
1774420729.1564832,25
1774420729.1805284,25
1774420729.187169,25
1774420729.20532,25
1774420729.2209458,27
1774420729.2396717,32
1774420729.2561295,39
1774420729.2710245,46
1774420729.2914438,55
1774420729.3105435,63
1774420729.326275,68
1774420729.337505,71
1774420729.3547425,71
1774420729.3742502,68
1774420729.3903804,65
1774420729.4080858,61
1774420729.4263167,57
1774420729.4384005,53
1774420729.4550204,50
1774420729.4747515,46
1774420729.489547,44
1774420729.5054033,42
1774420729.5205436,41
1774420729.5388706,41
1774420729.560772,41
1774420729.5724003,41
1774420729.593759,41
1774420729.6108563,41
1774420729.626211,40
1774420729.6416664,40
1774420729.656773,39
1774420729.6738505,37
1774420729.692826,35
1774420729.7119963,32
1774420729.724738,30
1774420729.7408516,28
1774420729.759431,27
1774420729.772807,25
1774420729.789289,24
1774420729.8079762,23
1774420729.8207817,22
1774420729.8375406,22
1774420729.859105,22
1774420729.871804,22
1774420729.8884034,22
1774420729.906608,23
1774420729.9246726,23
1774420729.946605,23
1774420729.9565907,23
1774420729.9770784,23
1774420729.987089,25
1774420730.0071762,30
1774420730.020531,37
1774420730.042933,44
1774420730.0587673,53
1774420730.074919,62
1774420730.0908604,68
1774420730.1059334,71
1774420730.1212995,71
1774420730.1380618,69
1774420730.1541266,66
1774420730.1706612,62
1774420730.1896036,58
1774420730.2044857,54
1774420730.2207873,50
1774420730.2385352,47
1774420730.2566183,44
1774420730.2774959,42
1774420730.2908416,41
1774420730.3134239,40
1774420730.324351,40
1774420730.3429012,40
1774420730.3593895,40
1774420730.377548,40
1774420730.392816,40
1774420730.409437,40
1774420730.424989,39
1774420730.4484103,37
1774420730.4594178,35
1774420730.476063,32
1774420730.4927382,30
1774420730.504214,28
1774420730.5260773,26
1774420730.5463238,25
1774420730.5594926,23
1774420730.5762289,22
1774420730.592727,22
1774420730.6078727,21
1774420730.627378,21
1774420730.644215,21
1774420730.6599622,21
1774420730.6724966,22
1774420730.6878426,22
1774420730.706906,22
1774420730.7209327,22
1774420730.742787,22
1774420730.7591093,23
1774420730.774039,27
1774420730.7900002,33
1774420730.8066413,40
1774420730.8219936,49
1774420730.8377028,58
1774420730.8564334,66
1774420730.8717716,70
1774420730.8928068,72
1774420730.91078,71
1774420730.9263172,68
1774420730.944317,64
1774420730.955113,60
1774420730.9763324,56
1774420730.9941206,52
1774420731.0078049,49
1774420731.0253966,46
1774420731.0454113,43
1774420731.0596201,41
1774420731.076157,40
1774420731.0887601,40
1774420731.1094968,40
1774420731.125826,40
1774420731.1416194,41
1774420731.1556845,40
1774420731.172965,40
1774420731.186976,40
1774420731.2045472,38
1774420731.2215657,36
1774420731.2415786,34
1774420731.26939,32
1774420731.2714586,30
1774420731.2929475,28
1774420731.3121042,26
1774420731.3274152,25
1774420731.3438225,24
1774420731.359763,23
1774420731.3709023,22
1774420731.39593,22
1774420731.4093838,22
1774420731.4292033,22
1774420731.438013,22
1774420731.4560018,22
1774420731.477091,23
1774420731.4886932,23
1774420731.5091288,23
1774420731.5203407,24
1774420731.5463707,26
1774420731.5571537,31
1774420731.5762563,38
1774420731.5888412,46
1774420731.609329,55
1774420731.6268804,63
1774420731.6372454,69
1774420731.6595845,72
1774420731.6742542,71
1774420731.68762,68
1774420731.710411,64
1774420731.7262294,60
1774420731.7458997,56
1774420731.7596622,51
1774420731.7790875,47
1774420731.7924664,44
1774420731.806483,42
1774420731.8240063,40
1774420731.8426716,40
1774420731.8562808,40
1774420731.8728075,40
1774420731.887936,40
1774420731.907207,41
1774420731.9232855,41
1774420731.9372964,41
1774420731.953685,40
1774420731.9739978,39
1774420731.9874947,37
1774420732.009533,35
1774420732.0261962,33
1774420732.0464923,31
1774420732.0606737,29
1774420732.0760722,27
1774420732.093838,25
1774420732.1075168,24
1774420732.1280243,23
1774420732.1428783,23
1774420732.1595268,23
1774420732.1762998,23
1774420732.1905992,23
1774420732.2065744,23
1774420732.2256422,23
1774420732.2415626,23
1774420732.2577484,23
1774420732.2742877,25
1774420732.2871034,28
1774420732.3050146,34
1774420732.3202972,40
1774420732.3427756,49
1774420732.3570929,58
1774420732.3838835,66
1774420732.3888426,70
1774420732.4086964,72
1774420732.4217896,71
1774420732.445116,68
1774420732.4596064,64
1774420732.4718692,59
1774420732.4872983,55
1774420732.5095534,51
1774420732.5253775,48
1774420732.542773,45
1774420732.554926,43
1774420732.5755413,41
1774420732.5915954,40
1774420732.606969,40
1774420732.6228666,40
1774420732.6390345,41
1774420732.654907,41
1774420732.6830235,41
1774420732.6929667,40
1774420732.7093537,40
1774420732.727711,38
1774420732.7434814,36
1774420732.7607305,34
1774420732.7828503,32
1774420732.794624,30
1774420732.807173,28
1774420732.8234894,26
1774420732.8438537,24
1774420732.8595147,23
1774420732.8759627,22
1774420732.89025,22
1774420732.9094086,22
1774420732.9255059,22
1774420732.9415672,22
1774420732.957598,22
1774420732.973389,22
1774420732.9938955,22
1774420733.0081215,22
1774420733.0216289,24
1774420733.0376606,27
1774420733.0538795,33
1774420733.072304,40
1774420733.0883467,50
1774420733.112609,59
1774420733.1210158,67
1774420733.142903,72
1774420733.1590452,74
1774420733.1732466,73
1774420733.1869173,70
1774420733.207503,66
1774420733.2258475,61
1774420733.2420425,57
1774420733.2554083,53
1774420733.276531,50
1774420733.2977452,46
1774420733.3063996,44
1774420733.3261042,42
1774420733.3408144,41
1774420733.3569586,40
1774420733.3721428,40
1774420733.3882759,41
1774420733.4048629,41
1774420733.420452,41
1774420733.449655,40
1774420733.4609866,40
1774420733.4762373,38
1774420733.488196,36
1774420733.5066211,34
1774420733.5211675,32
1774420733.5452018,30
1774420733.5544007,27
1774420733.579589,26
1774420733.5960984,24
1774420733.6120296,23
1774420733.6270838,22
1774420733.6403735,21
1774420733.656829,21
1774420733.675091,21
1774420733.686982,21
1774420733.7072864,22
1774420733.7208931,22
1774420733.7394483,22
1774420733.7593403,22
1774420733.7704046,23
1774420733.7914863,23
1774420733.8064213,26
1774420733.8240538,31
1774420733.842745,39
1774420733.8564541,47
1774420733.8813403,57
1774420733.888589,65
1774420733.9094436,71
1774420733.920202,74
1774420733.942753,74
1774420733.9596257,71
1774420733.9760163,67
1774420733.9875538,62
1774420734.0068424,57
1774420734.0207937,53
1774420734.037071,49
1774420734.0557098,46
1774420734.0761497,43
1774420734.0897157,41
1774420734.1065352,41
1774420734.1233602,41
1774420734.1377525,41
1774420734.1560862,42
1774420734.180113,43
1774420734.1876268,43
1774420734.20691,42
1774420734.2271738,41
1774420734.24109,40
1774420734.2549827,39
1774420734.2765162,37
1774420734.2884812,34
1774420734.309607,32
1774420734.322813,30
1774420734.344228,28
1774420734.3594496,27
1774420734.3764508,25
1774420734.3928087,25
1774420734.4083066,24
1774420734.4228895,24
1774420734.4374948,24
1774420734.4562972,24
1774420734.472362,25
1774420734.4884427,25
1774420734.5041342,25
1774420734.520442,25
1774420734.5514657,25
1774420734.5593376,27
1774420734.5801835,31
1774420734.5932212,36
1774420734.6094625,43
1774420734.6264246,52
1774420734.642695,62
1774420734.6561072,69
1774420734.676018,74
1774420734.6879976,75
1774420734.7099438,74
1774420734.721058,70
1774420734.743346,66
1774420734.7539918,62
1774420734.7708163,58
1774420734.7927625,54
1774420734.809354,50
1774420734.8222246,47
1774420734.8381367,45
1774420734.8543327,43
1774420734.8761077,42
1774420734.8961825,42
1774420734.9108255,43
1774420734.9243238,43
1774420734.9407191,44
1774420734.9651484,44
1774420734.97617,43
1774420734.9920938,42
1774420735.0129144,40
1774420735.0290647,39
1774420735.0432107,37
1774420735.056048,34
1774420735.0762665,32
1774420735.0887616,30
1774420735.1038654,28
1774420735.1201332,27
1774420735.1453547,26
1774420735.1607032,25
1774420735.176003,25
1774420735.1875827,25
1774420735.204455,25
1774420735.2232015,25
1774420735.2368019,25
1774420735.2639012,25
1774420735.2761152,25
1774420735.2956047,27
1774420735.309458,31
1774420735.3282292,38
1774420735.342959,45
1774420735.365882,54
1774420735.3767216,63
1774420735.3930943,70
1774420735.4094594,74
1774420735.4253628,75
1774420735.4402106,73
1774420735.456009,70
1774420735.4740763,66
1774420735.4886537,62
1774420735.50624,58
1774420735.5209947,54
1774420735.5382893,51
1774420735.5659957,48
1774420735.570085,45
1774420735.5928214,43
1774420735.610017,42
1774420735.626255,42
1774420735.6428087,42
1774420735.6594408,43
1774420735.6774323,43
1774420735.6967657,43
1774420735.709537,42
1774420735.7263334,41
1774420735.742676,40
1774420735.760053,38
1774420735.7762203,36
1774420735.7923093,34
1774420735.8079548,32
1774420735.824095,30
1774420735.840415,28
1774420735.8561983,27
1774420735.8764014,26
1774420735.8879821,25
1774420735.904053,25
1774420735.920935,25
1774420735.9428933,24
1774420735.9593215,24
1774420735.9739296,24
1774420735.9876606,24
1774420736.0075426,24
1774420736.028763,26
1774420736.0389402,29
1774420736.0571327,35
1774420736.0763614,42
1774420736.0929682,51
1774420736.1044512,60
1774420736.127257,67
1774420736.1430087,72
1774420736.159148,73
1774420736.1750016,71
1774420736.1909761,67
1774420736.2043962,63
1774420736.2231803,59
1774420736.242955,55
1774420736.2559533,51
1774420736.271182,47
1774420736.287063,44
1774420736.3098266,42
1774420736.3250585,41
1774420736.3385,40
1774420736.3665047,40
1774420736.3700848,40
1774420736.3945053,41
1774420736.4094393,41
1774420736.4263148,41
1774420736.442817,40
1774420736.45956,40
1774420736.4786696,38
1774420736.490842,36
1774420736.5094452,34
1774420736.5264995,32
1774420736.5428135,30
1774420736.558707,28
1774420736.5745785,26
1774420736.5907395,24
1774420736.6181407,23
1774420736.6225703,22
1774420736.6388083,22
1774420736.6535575,22
1774420736.6760817,22
1774420736.6880312,22
1774420736.7066715,23
1774420736.7289002,23
1774420736.7367058,24
1774420736.7655542,24
1774420736.7807899,24
1774420736.7966383,23
1774420736.813101,23
1774420736.8281028,25
1774420736.8416207,29
1774420736.8608408,35
1774420736.8761895,42
1774420736.8929734,52
1774420736.90944,61
1774420736.9225192,68
1774420736.940975,72
1774420736.9584768,72
1774420736.9715614,70
1774420736.9962776,66
1774420737.0050507,61
1774420737.0210865,56
1774420737.0367534,51
1774420737.0565228,46
1774420737.0760927,43
1774420737.092882,40
1774420737.104885,39
1774420737.1280198,38
1774420737.1366603,38
1774420737.1620684,39
1774420737.1704183,40
1774420737.1955678,40
1774420737.2069097,40
1774420737.2204962,40
1774420737.2410793,40
1774420737.2593822,39
1774420737.2747197,37
1774420737.2905374,35
1774420737.3095562,33
1774420737.3262591,30
1774420737.3428237,28
1774420737.354645,26
1774420737.3701327,24
1774420737.3927743,23
1774420737.4094727,22
1774420737.4239473,21
1774420737.4394836,20
1774420737.4645343,20
1774420737.4781632,20
1774420737.4945526,20
1774420737.5034604,21
1774420737.5284472,22
1774420737.5388691,22
1774420737.5575807,22
1774420737.569962,23
1774420737.59266,23
1774420737.6035936,22
1774420737.6262171,22
1774420737.6406646,23
1774420737.654506,26
1774420737.6730886,32
1774420737.6872005,40
1774420737.704868,48
1774420737.726121,58
1774420737.7429464,66
1774420737.7593546,71
1774420737.7720263,73
1774420737.7923958,72
1774420737.8092256,68
1774420737.8213637,64
1774420737.8374727,58
1774420737.8641706,53
1774420737.8716428,47
1774420737.8924541,43
1774420737.9054248,40
1774420737.9236143,38
1774420737.9368672,37
1774420737.9584577,37
1774420737.9730785,37
1774420737.9902894,39
1774420738.0062933,40
1774420738.022448,40
1774420738.0429027,41
1774420738.054718,40
1774420738.0701683,40
1774420738.0928197,39
1774420738.10785,37
1774420738.1294498,35
1774420738.1389208,32
1774420738.1570544,30
1774420738.170941,27
1774420738.1873882,25
1774420738.2048366,24
1774420738.2241454,22
1774420738.241963,21
1774420738.2533507,20
1774420738.2729478,20
1774420738.2927015,20
1774420738.3040032,20
1774420738.323311,20
1774420738.336576,21
1774420738.358548,21
1774420738.3701901,22
1774420738.3915963,22
1774420738.4032402,22
1774420738.421671,22
1774420738.4379673,25
1774420738.4537418,29
1774420738.4758437,37
1774420738.4971611,44
1774420738.5057468,54
1774420738.5286016,63
1774420738.5420208,70
1774420738.5557694,74
1774420738.576242,74
1774420738.5942886,72
1774420738.6109734,67
1774420738.6273658,62
1774420738.6402295,56
1774420738.6569326,51
1774420738.6748562,46
1774420738.6910799,42
1774420738.7052293,40
1774420738.7261693,38
1774420738.7376885,38
1774420738.7573287,38
1774420738.7733946,40
1774420738.7895956,40
1774420738.805376,41
1774420738.8218036,42
1774420738.836552,43
1774420738.863842,42
1774420738.87606,41
1774420738.8928835,40
1774420738.9053252,38
1774420738.921845,36
1774420738.942949,34
1774420738.9641848,32
1774420738.970161,29
1774420738.9901764,27
1774420739.0043097,26
1774420739.0278177,25
1774420739.0399778,24
1774420739.0595434,24
1774420739.0758288,23
1774420739.0916681,23
1774420739.1059954,23
1774420739.1348045,24
1774420739.1366975,24
1774420739.155725,24
1774420739.1701572,26
1774420739.1877494,29
1774420739.2042139,35
1774420739.221649,42
1774420739.244248,51
1774420739.259588,60
1774420739.2718954,69
1774420739.2959044,74
1774420739.309443,77
1774420739.327627,76
1774420739.3429298,72
1774420739.3615153,68
1774420739.3762012,62
1774420739.392888,57
1774420739.4063818,52
1774420739.4260662,47
1774420739.4366674,43
1774420739.4575324,41
1774420739.4737558,40
1774420739.4895227,40
1774420739.5045652,40
1774420739.5226731,41
1774420739.5365458,43
1774420739.5537198,44
1774420739.569982,44
1774420739.59214,44
1774420739.6058235,43
1774420739.6319888,42
1774420739.6440768,40
1774420739.6629589,39
1774420739.6762486,36
1774420739.6971927,34
1774420739.7106764,31
1774420739.7293203,29
1774420739.7428737,28
1774420739.7605305,26
1774420739.7761297,25
1774420739.792693,25
1774420739.8091733,24
1774420739.825088,24
1774420739.8382537,24
1774420739.8570359,24
1774420739.873556,24
1774420739.8995202,26
1774420739.905157,30
1774420739.9212637,37
1774420739.9365213,44
1774420739.953279,54
1774420739.9747818,63
