timestamp,bvp
1774421695.567127,39
1774421695.5837498,38
1774421695.6004758,37
1774421695.6170616,37
1774421695.633687,37
1774421695.6504245,36
1774421695.6670876,35
1774421695.6836953,33
1774421695.7003977,30
1774421695.7170532,28
1774421695.733719,25
1774421695.7503848,23
1774421695.7670372,20
1774421695.7837074,18
1774421695.800697,16
1774421695.8172421,14
1774421695.8337717,12
1774421695.851925,10
1774421695.8679192,9
1774421695.8852036,8
1774421695.90082,7
1774421695.9175684,6
1774421695.9340572,8
1774421695.9505858,13
1774421695.9676285,20
1774421695.9839547,31
1774421696.002012,41
1774421696.0170543,52
1774421696.0345879,60
1774421696.0504045,66
1774421696.0670855,68
1774421696.0848985,67
1774421696.1021223,65
1774421696.1175687,61
1774421696.1353397,58
1774421696.1509254,54
1774421696.1680653,50
1774421696.184046,46
1774421696.2013884,42
1774421696.2174835,40
1774421696.2378237,38
1774421696.2521193,37
1774421696.2726803,37
1774421696.2898962,37
1774421696.3032093,37
1774421696.3178644,37
1774421696.3376873,36
1774421696.3518584,35
1774421696.374363,33
1774421696.384095,31
1774421696.4081576,29
1774421696.4170892,26
1774421696.4409792,24
1774421696.4510195,21
1774421696.4701965,19
1774421696.4836895,17
1774421696.5020876,15
1774421696.525893,14
1774421696.5418868,12
1774421696.557736,11
1774421696.575227,10
1774421696.5916288,9
1774421696.6039963,11
1774421696.6236532,15
1774421696.6376026,22
1774421696.6556318,32
1774421696.671736,41
1774421696.6893885,52
1774421696.707651,61
1774421696.7186923,66
1774421696.7349608,68
1774421696.7536619,68
1774421696.7712173,65
1774421696.7851112,62
1774421696.8090835,59
1774421696.8227265,55
1774421696.8348155,51
1774421696.8575935,47
1774421696.8717084,44
1774421696.8912845,41
1774421696.909032,40
1774421696.9204116,39
1774421696.9415548,39
1774421696.9575832,39
1774421696.974714,39
1774421696.990859,39
1774421697.0067744,39
1774421697.0241828,37
1774421697.0389974,36
1774421697.0533595,33
1774421697.0718684,31
1774421697.0918362,28
1774421697.1027868,26
1774421697.1243129,24
1774421697.1412246,22
1774421697.1519518,20
1774421697.1778514,18
1774421697.184189,17
1774421697.2077184,15
1774421697.2169473,14
1774421697.2408319,13
1774421697.258278,13
1774421697.2680779,15
1774421697.2918224,21
1774421697.3027492,30
1774421697.3186235,40
1774421697.3377964,50
1774421697.3526115,60
1774421697.3687267,67
1774421697.384785,71
1774421697.4014883,72
1774421697.4219892,71
1774421697.4424996,68
1774421697.457814,65
1774421697.472944,62
1774421697.4914398,58
1774421697.5047362,54
1774421697.524798,50
1774421697.5414736,47
1774421697.5512495,45
1774421697.5772429,43
1774421697.5852373,42
1774421697.60841,42
1774421697.6174824,42
1774421697.6382604,42
1774421697.652859,42
1774421697.6688414,41
1774421697.6835864,40
1774421697.7010653,38
1774421697.71735,36
1774421697.7357101,33
1774421697.7503886,30
1774421697.7672827,28
1774421697.7854245,25
1774421697.8018672,23
1774421697.8190377,21
1774421697.8373353,19
1774421697.851455,18
1774421697.867321,17
1774421697.8839025,15
1774421697.9026332,14
1774421697.919184,14
1774421697.935671,15
1774421697.9525988,19
1774421697.969378,26
1774421697.98409,35
1774421698.0008867,45
1774421698.017025,57
1774421698.035339,67
1774421698.0514355,74
1774421698.0695534,77
1774421698.084996,78
1774421698.1015172,77
1774421698.1175544,75
1774421698.1344795,72
1774421698.157566,69
1774421698.1673145,66
1774421698.185475,62
1774421698.200995,58
1774421698.220702,55
1774421698.2361124,52
1774421698.25272,50
1774421698.2689314,48
1774421698.284507,48
1774421698.3022902,47
1774421698.3190963,46
1774421698.3351355,45
1774421698.3529315,44
1774421698.3707333,42
1774421698.3870165,40
1774421698.4034376,38
1774421698.4242477,35
1774421698.4410465,32
1774421698.457848,29
1774421698.476837,26
1774421698.4909532,24
1774421698.501583,22
1774421698.522477,20
1774421698.5372715,18
1774421698.5568182,17
1774421698.5718596,15
1774421698.590993,14
1774421698.601155,13
1774421698.6239204,13
1774421698.640046,14
1774421698.6561406,19
1774421698.6719544,26
1774421698.6883898,36
1774421698.706166,45
1774421698.7173004,56
1774421698.7383766,65
1774421698.7607734,70
1774421698.767874,72
1774421698.7840605,72
1774421698.810203,71
1774421698.8168557,68
1774421698.8416154,65
1774421698.8568408,62
1774421698.8717747,58
1774421698.8847554,54
1774421698.9020836,51
1774421698.9168751,48
1774421698.9416313,45
1774421698.959449,43
1774421698.9696124,41
1774421698.9875255,41
1774421699.0058832,40
1774421699.0213077,40
1774421699.039515,40
1774421699.0508926,38
1774421699.0689378,36
1774421699.085134,34
1774421699.1004024,31
1774421699.1228302,28
1774421699.1350102,26
1774421699.1542184,23
1774421699.1741161,21
1774421699.1862988,18
1774421699.203417,16
1774421699.2173874,15
1774421699.234285,13
1774421699.2501729,12
1774421699.2742958,11
1774421699.2903166,10
1774421699.300888,9
1774421699.3175778,8
1774421699.3363147,7
1774421699.3523054,9
1774421699.372729,13
1774421699.3882406,21
1774421699.404476,30
1774421699.4203427,40
1774421699.4362454,49
1774421699.4572,58
1774421699.4672492,63
1774421699.48381,65
1774421699.5027463,65
1774421699.5201814,63
1774421699.5340345,60
1774421699.556178,57
1774421699.5749831,54
1774421699.5839932,50
1774421699.6053486,46
1774421699.6197612,43
1774421699.6383796,40
1774421699.6549802,39
1774421699.671696,37
1774421699.686635,36
1774421699.7021916,36
1774421699.7232234,36
1774421699.7350683,36
1774421699.757527,35
1774421699.77627,33
1774421699.7848132,32
1774421699.8038135,29
1774421699.8184488,27
1774421699.8351963,25
1774421699.8575273,22
1774421699.8673031,20
1774421699.8902578,18
1774421699.9039953,16
1774421699.9207451,14
1774421699.9360704,12
1774421699.954171,11
1774421699.9721463,10
1774421699.9839396,9
1774421700.006764,8
1774421700.0168366,7
1774421700.0339375,6
1774421700.053586,6
1774421700.0698016,8
1774421700.0896683,14
1774421700.1056612,21
1774421700.124127,31
1774421700.1381128,40
1774421700.1590388,49
1774421700.1680038,57
1774421700.1838305,61
1774421700.202744,62
1774421700.2226386,61
1774421700.2411401,58
1774421700.2545414,55
1774421700.271334,52
1774421700.2841783,49
1774421700.3011138,45
1774421700.3182528,41
1774421700.3366213,39
1774421700.354395,37
1774421700.372017,35
1774421700.3841548,34
1774421700.4052448,34
1774421700.4188387,34
1774421700.4364161,34
1774421700.4545977,33
1774421700.470457,32
1774421700.4865868,31
1774421700.501161,29
1774421700.5175543,27
1774421700.5335333,25
1774421700.5565302,23
1774421700.5669048,21
1774421700.5906112,18
1774421700.6060843,16
1774421700.620571,14
1774421700.636995,13
1774421700.661466,11
1774421700.6724508,10
1774421700.6896548,9
1774421700.7036278,8
1774421700.7173877,7
1774421700.7359393,6
1774421700.7605805,6
1774421700.7680483,9
1774421700.7928374,14
1774421700.8046875,22
1774421700.8195932,31
1774421700.8355637,40
1774421700.8531213,50
1774421700.8720837,58
1774421700.8910365,62
1774421700.9029324,63
1774421700.926362,62
1774421700.9368582,59
1774421700.9546165,56
1774421700.9690962,53
1774421700.9904,49
1774421701.0035222,45
1774421701.0180821,42
1774421701.0403805,40
1774421701.058288,37
1774421701.0700347,35
1774421701.0899856,34
1774421701.1039922,34
1774421701.123532,34
1774421701.1358123,34
1774421701.1554813,34
1774421701.174081,34
1774421701.1847265,32
1774421701.2031722,31
1774421701.2169058,29
1774421701.2401776,26
1774421701.2502918,24
1774421701.270478,22
1774421701.2842464,19
1774421701.301831,17
1774421701.3197565,15
1774421701.3343396,14
1774421701.354613,12
1774421701.3718832,11
1774421701.3908544,10
1774421701.404683,8
1774421701.424262,7
1774421701.4339728,7
1774421701.4527688,9
1774421701.4683986,14
1774421701.4898026,21
1774421701.5058239,31
1774421701.5209758,40
1774421701.5343256,50
1774421701.5516663,59
1774421701.5700936,63
1774421701.5839758,65
1774421701.6024191,64
1774421701.6172078,62
1774421701.6394808,59
1774421701.6546438,55
1774421701.6697104,51
1774421701.6925778,47
1774421701.7083242,44
1774421701.7217069,40
1774421701.7366478,39
1774421701.7528083,37
1774421701.7690814,36
1774421701.7858617,36
1774421701.80448,37
1774421701.8202538,37
1774421701.8350375,37
1774421701.85613,36
1774421701.8680754,35
1774421701.8892422,34
1774421701.9047189,32
1774421701.9243665,29
1774421701.9360058,27
1774421701.9536567,24
1774421701.9684322,22
1774421701.9844298,20
1774421702.0083914,18
1774421702.0184348,16
1774421702.037877,15
1774421702.0592344,13
1774421702.0678995,12
1774421702.0849533,11
1774421702.1014853,10
1774421702.1201193,11
1774421702.1355102,15
1774421702.1533842,23
1774421702.1712344,32
1774421702.1909606,42
1774421702.207227,52
1774421702.2170641,61
1774421702.237614,67
1774421702.255182,69
1774421702.271449,69
1774421702.2871659,66
1774421702.3004394,63
1774421702.3180385,60
1774421702.3354113,56
1774421702.3502991,51
1774421702.3743525,47
1774421702.3849406,44
1774421702.4069178,41
1774421702.4166496,40
1774421702.437159,39
1774421702.4577582,39
1774421702.4683282,40
1774421702.4913373,40
1774421702.5059335,40
1774421702.523056,39
1774421702.5372634,38
1774421702.5574167,36
1774421702.5741334,34
1774421702.5890894,32
1774421702.6044297,29
1774421702.6204376,27
1774421702.6420417,25
1774421702.6523068,22
1774421702.6675525,20
1774421702.6842012,19
1774421702.7024195,17
1774421702.7244275,15
1774421702.742198,14
1774421702.7550113,13
1774421702.7691529,12
1774421702.7911983,14
1774421702.8022602,19
1774421702.8200524,27
1774421702.8383925,38
1774421702.851992,48
1774421702.8731241,59
1774421702.8909118,68
1774421702.9029481,73
1774421702.922583,75
1774421702.9401631,74
1774421702.9562292,72
1774421702.969597,69
1774421702.9883263,65
1774421703.001438,61
1774421703.019195,57
1774421703.0357754,53
1774421703.052243,49
1774421703.072897,46
1774421703.087315,44
1774421703.1005626,42
1774421703.124576,42
1774421703.1359022,42
1774421703.1590583,41
1774421703.1683686,41
1774421703.1910396,40
1774421703.2058115,40
1774421703.2177784,37
1774421703.2427182,35
1774421703.2536542,32
1774421703.2761261,30
1774421703.2862878,27
1774421703.302418,24
1774421703.3175423,22
1774421703.337667,20
1774421703.3536286,18
1774421703.3694832,16
1774421703.385713,14
1774421703.401469,13
1774421703.42517,11
1774421703.440686,10
1774421703.454221,10
1774421703.4702213,11
1774421703.4869835,16
1774421703.50501,24
1774421703.5221615,34
1774421703.535947,44
1774421703.5577106,55
1774421703.5682352,64
1774421703.5878024,70
1774421703.600375,72
1774421703.61788,72
1774421703.6401415,70
1774421703.6545525,67
1774421703.6737356,64
1774421703.6832573,60
1774421703.7028916,57
1774421703.7167394,53
1774421703.7352104,49
1774421703.7553673,46
1774421703.7691224,43
1774421703.7850013,41
1774421703.8059487,40
1774421703.822846,40
1774421703.8402236,40
1774421703.8527255,40
1774421703.8686082,39
1774421703.8909311,37
1774421703.9033222,35
1774421703.9242766,33
1774421703.9345725,31
1774421703.9524467,28
1774421703.9673839,26
1774421703.9887302,23
1774421704.0017703,21
1774421704.0187612,19
1774421704.038947,17
1774421704.0516994,15
1774421704.0697687,14
1774421704.091,12
1774421704.1080883,11
1774421704.1168594,10
1774421704.1389434,9
1774421704.1520588,10
1774421704.172342,13
1774421704.1900253,20
1774421704.2030334,29
1774421704.224203,39
1774421704.233761,48
1774421704.252019,57
1774421704.2696848,63
1774421704.290816,65
1774421704.3002675,65
1774421704.3177502,63
1774421704.3362293,60
1774421704.3530633,57
1774421704.3694263,54
1774421704.387587,50
1774421704.404219,47
1774421704.416564,44
1774421704.435364,41
1774421704.4505167,39
1774421704.4738224,38
1774421704.4923232,37
1774421704.501984,36
1774421704.525088,36
1774421704.5395644,36
1774421704.5574956,35
1774421704.5714355,34
1774421704.5908694,33
1774421704.6074636,31
1774421704.6253767,29
1774421704.6414745,26
1774421704.6576898,24
1774421704.6719959,22
1774421704.6908956,20
1774421704.7040935,18
1774421704.7214262,16
1774421704.737611,15
1774421704.75344,13
1774421704.76866,12
1774421704.7856064,11
1774421704.801426,10
1774421704.8175066,9
1774421704.8379004,9
1774421704.8566787,10
1774421704.8742602,14
1774421704.8911314,21
1774421704.9095838,30
1774421704.9242141,39
1774421704.944885,48
1774421704.958997,56
1774421704.972452,61
1774421704.989848,63
1774421705.0092402,62
1774421705.0243356,60
1774421705.0368962,57
1774421705.0569284,54
1774421705.0718844,51
1774421705.0910175,48
1774421705.1042333,44
1774421705.118386,41
1774421705.1363518,39
1774421705.1499383,37
1774421705.1684785,36
1774421705.1914418,36
1774421705.2013805,36
1774421705.2165194,36
1774421705.2348788,35
1774421705.2507217,35
1774421705.279363,34
1774421705.2842612,32
1774421705.3009095,31
1774421705.3167963,29
1774421705.3370275,27
1774421705.3527615,25
1774421705.3715222,22
1774421705.386592,21
1774421705.4032187,19
1774421705.4233828,17
1774421705.4387937,16
1774421705.455468,15
1774421705.470457,14
1774421705.4909382,13
1774421705.501929,12
1774421705.5241818,11
1774421705.5389843,12
1774421705.5514758,16
1774421705.5688908,22
1774421705.5911949,30
1774421705.6037083,40
1774421705.616491,48
1774421705.6345594,57
1774421705.6498241,62
1774421705.671403,64
1774421705.6903675,64
1774421705.7043526,62
1774421705.7224011,60
1774421705.7378953,57
1774421705.7590604,53
1774421705.7722344,50
1774421705.7884517,46
1774421705.800631,43
1774421705.8207493,41
1774421705.8364727,40
1774421705.8513865,39
1774421705.8709226,38
1774421705.8839128,38
1774421705.9011595,38
1774421705.9217813,38
1774421705.936716,38
1774421705.9520402,37
1774421705.9684126,36
1774421705.990947,34
1774421706.0007281,32
1774421706.0243573,30
1774421706.0409815,28
1774421706.0577815,26
1774421706.0727453,24
1774421706.0868342,22
1774421706.102214,21
1774421706.118077,19
1774421706.1398637,18
1774421706.1528008,17
1774421706.1761017,16
1774421706.191805,15
1774421706.2020218,15
1774421706.2178142,17
1774421706.233927,21
1774421706.2549865,28
1774421706.2731395,37
1774421706.2832205,46
1774421706.300729,56
1774421706.3188164,64
1774421706.3372662,68
1774421706.3542216,70
1774421706.3709164,69
1774421706.386729,67
1774421706.4059227,64
1774421706.4169161,61
1774421706.4411752,57
1774421706.4510348,54
1774421706.4739974,50
1774421706.4897819,47
1774421706.5065963,45
1774421706.521853,43
1774421706.5443976,42
1774421706.5518188,42
1774421706.569136,42
1774421706.5885434,42
1774421706.6029568,42
1774421706.616905,42
1774421706.6410913,40
1774421706.6514337,40
1774421706.6711452,37
1774421706.6960814,35
1774421706.7018921,33
1774421706.7177117,31
1774421706.740334,28
1774421706.757629,26
1774421706.770809,25
1774421706.7875152,23
1774421706.801216,22
1774421706.8189952,20
1774421706.8346105,19
1774421706.8553376,18
1774421706.8713367,17
1774421706.8842545,18
1774421706.9047704,21
1774421706.9227228,28
1774421706.9385858,36
1774421706.950788,45
1774421706.9712524,55
1774421706.9889097,64
1774421707.0046372,70
1774421707.0237596,73
1774421707.0450501,74
1774421707.0575383,72
1774421707.0702057,69
1774421707.0912719,66
1774421707.099823,63
1774421707.1197603,59
1774421707.1367075,55
1774421707.151835,52
1774421707.1695938,49
1774421707.1859162,47
1774421707.202717,46
1774421707.2227576,45
1774421707.2360764,45
1774421707.2543628,46
1774421707.2710102,46
1774421707.2870216,45
1774421707.3002677,44
1774421707.3180313,42
1774421707.341819,40
1774421707.356986,39
1774421707.366509,36
1774421707.3888054,34
1774421707.4022436,31
1774421707.4214685,29
1774421707.4375103,27
1774421707.4576843,26
1774421707.4724188,24
1774421707.4834704,22
1774421707.501216,21
1774421707.5190334,20
1774421707.536031,19
1774421707.558098,21
1774421707.5680878,26
1774421707.5900273,33
1774421707.6025019,41
1774421707.616623,51
1774421707.6379364,61
1774421707.6540556,69
1774421707.6704888,74
1774421707.6840413,75
1774421707.700476,75
1774421707.7173798,72
1774421707.743059,69
1774421707.7501917,66
1774421707.7732992,62
1774421707.7908323,58
1774421707.8074944,54
1774421707.8197224,51
1774421707.8345575,49
1774421707.8548512,47
1774421707.8720617,47
1774421707.893097,47
1774421707.902858,47
1774421707.9246078,47
1774421707.9343967,47
1774421707.9565704,46
1774421707.970258,44
1774421707.988493,42
1774421708.0002043,40
1774421708.0209553,38
1774421708.0365386,35
1774421708.050526,33
1774421708.0686438,31
1774421708.0902517,29
1774421708.1046884,27
1774421708.1168313,25
1774421708.1382027,23
1774421708.1576679,22
1774421708.1728847,20
1774421708.1910532,20
1774421708.2038016,22
1774421708.2184832,27
1774421708.2381182,35
1774421708.2528582,43
1774421708.2745168,54
1774421708.2851162,64
1774421708.3005645,71
1774421708.3209827,75
1774421708.3360023,77
1774421708.352665,76
1774421708.367796,74
1774421708.3908153,71
1774421708.4008965,67
1774421708.4198945,63
1774421708.435919,59
1774421708.4517899,55
1774421708.4680057,52
1774421708.490815,49
1774421708.4997442,48
1774421708.5244942,47
1774421708.5395014,47
1774421708.5571713,47
1774421708.5693195,47
1774421708.589834,46
1774421708.6012492,45
1774421708.6178436,43
1774421708.6345878,41
1774421708.651909,39
1774421708.6717486,37
1774421708.6878965,34
1774421708.7049274,32
1774421708.7229276,29
1774421708.736555,27
1774421708.7529037,25
1774421708.7680218,24
1774421708.787031,22
1774421708.801588,21
1774421708.822123,19
1774421708.8362906,19
1774421708.8574877,20
1774421708.8773398,24
1774421708.8869858,31
1774421708.9060512,40
1774421708.921798,51
1774421708.943401,62
1774421708.9576192,71
1774421708.973029,77
1774421708.9880064,80
1774421709.007414,80
1774421709.0232892,78
1774421709.037809,76
1774421709.0553126,73
1774421709.0714152,69
1774421709.0880022,65
1774421709.1035478,61
1774421709.1183772,58
1774421709.1343577,55
1774421709.1508846,52
1774421709.166428,50
1774421709.183579,49
1774421709.2006857,49
1774421709.220798,49
1774421709.2363334,48
1774421709.249622,47
1774421709.2705128,45
1774421709.2862473,43
1774421709.2999904,40
1774421709.3172774,38
1774421709.3356626,36
1774421709.3570135,33
1774421709.3731148,30
1774421709.3864577,28
1774421709.4012072,25
1774421709.4210954,24
1774421709.4371707,22
1774421709.4544032,20
1774421709.4678652,19
1774421709.4844203,18
1774421709.5003338,17
1774421709.5163977,17
1774421709.5357072,19
1774421709.5560436,25
1774421709.567978,34
1774421709.588851,43
1774421709.602874,55
1774421709.623067,66
1774421709.6433146,74
1774421709.6501956,79
1774421709.6746821,81
1774421709.685563,81
1774421709.7045891,79
1774421709.719823,77
1774421709.7368298,74
1774421709.7525632,71
1774421709.7741003,67
1774421709.7853074,63
1774421709.8013544,60
1774421709.820956,56
1774421709.8352304,53
1774421709.8519921,51
1774421709.868455,50
1774421709.8854587,49
1774421709.904481,48
1774421709.9231498,47
1774421709.9359715,46
1774421709.954046,44
1774421709.9687908,41
1774421709.986476,39
1774421710.0019329,36
1774421710.0204504,33
1774421710.034738,30
1774421710.0553017,28
1774421710.067032,25
1774421710.0830302,23
1774421710.1012506,21
1774421710.119895,19
1774421710.1391046,17
1774421710.1517398,16
1774421710.1705196,15
1774421710.1842124,14
1774421710.200507,13
1774421710.222691,12
1774421710.2406588,14
1774421710.253322,19
1774421710.2707512,27
1774421710.2834804,37
1774421710.3011,47
1774421710.3166227,59
1774421710.337822,68
1774421710.3546422,75
1774421710.368096,78
1774421710.3837776,79
1774421710.399897,78
1774421710.4225254,76
1774421710.434006,73
1774421710.450147,70
1774421710.4691367,67
1774421710.4854898,63
1774421710.5027256,59
1774421710.5176797,56
1774421710.5407507,53
1774421710.5587275,51
1774421710.5731857,49
1774421710.5885794,48
1774421710.602312,47
1774421710.6184998,46
1774421710.63931,45
1774421710.6517959,43
1774421710.6770577,41
1774421710.6882608,39
1774421710.7057567,36
1774421710.7183187,33
1774421710.737993,30
1774421710.7550411,27
1774421710.7710717,25
1774421710.7885597,22
1774421710.801668,20
1774421710.8217425,18
1774421710.8340278,16
1774421710.8495395,15
1774421710.8722146,14
1774421710.8828783,13
1774421710.9108026,12
1774421710.9243867,11
1774421710.9366076,10
1774421710.958869,9
1774421710.9672594,9
1774421710.990906,12
1774421711.0034263,18
1774421711.0240977,27
1774421711.034401,38
1774421711.0533774,49
1774421711.072279,60
1774421711.0882583,69
1774421711.1041894,75
1774421711.1201897,78
1774421711.1381226,78
1774421711.1542475,76
1774421711.1678839,74
1774421711.1889145,71
1774421711.1999848,67
1774421711.2187855,64
1774421711.2328777,60
1774421711.2555063,56
1774421711.267855,53
1774421711.2836254,50
1774421711.3016057,48
1774421711.316454,47
1774421711.339728,46
1774421711.3527074,46
1774421711.3689578,45
1774421711.3894737,43
1774421711.4053824,41
1774421711.4213896,40
1774421711.439299,37
1774421711.4520297,34
1774421711.4698086,31
1774421711.4846928,28
1774421711.501117,26
1774421711.5190337,23
1774421711.5359375,20
1774421711.5571144,18
1774421711.5673838,17
1774421711.5963953,15
1774421711.601772,14
1774421711.6167758,13
1774421711.638737,12
1774421711.6494923,11
1774421711.6683364,10
1774421711.6893368,10
1774421711.705056,11
1774421711.7232296,16
1774421711.73773,24
1774421711.7566936,34
1774421711.7727382,45
1774421711.788496,57
1774421711.799937,67
1774421711.8203728,73
1774421711.8358421,77
1774421711.8555055,77
1774421711.8685343,76
1774421711.885877,73
1774421711.9009602,70
1774421711.924477,66
1774421711.9365492,62
1774421711.9520028,58
1774421711.9689581,54
1774421711.9907572,51
1774421712.000982,48
1774421712.0182092,46
1774421712.0359378,45
1774421712.0582042,44
1774421712.0716858,44
1774421712.0827868,43
1774421712.104653,42
1774421712.122966,40
1774421712.1380255,39
1774421712.1546035,37
1774421712.1676524,34
1774421712.1870646,31
1774421712.2033691,28
1774421712.2192805,25
1774421712.2374277,22
1774421712.249873,20
1774421712.2704427,17
1774421712.2840207,15
1774421712.300064,14
1774421712.3191195,13
1774421712.3366446,11
1774421712.3575015,10
1774421712.368295,9
1774421712.391408,8
1774421712.4011104,8
1774421712.4259236,9
1774421712.437739,13
1774421712.4574761,21
1774421712.4699123,31
1774421712.4900277,42
1774421712.509601,55
1774421712.5220335,65
1774421712.5382533,73
1774421712.5541587,77
1774421712.5701435,78
1774421712.591821,77
1774421712.601745,74
1774421712.6237907,70
1774421712.639036,66
1774421712.656164,62
1774421712.6718936,58
1774421712.6917472,54
1774421712.7038286,50
1774421712.719446,47
1774421712.735883,45
1774421712.750408,44
1774421712.7672498,44
1774421712.79173,43
1774421712.8003356,43
1774421712.821276,42
1774421712.8384433,40
1774421712.8527658,39
1774421712.870635,37
1774421712.8893,34
1774421712.9050221,31
1774421712.920346,28
1774421712.9364874,25
1774421712.949416,22
1774421712.9699717,19
1774421712.9865577,17
1774421713.0011492,15
1774421713.0242786,13
1774421713.0384257,12
1774421713.057538,11
1774421713.0736053,10
1774421713.0900526,8
1774421713.1039736,8
1774421713.12473,8
1774421713.1363063,12
1774421713.152658,19
1774421713.1684833,29
1774421713.189727,40
1774421713.2001877,52
1774421713.2218509,64
1774421713.2327292,72
1774421713.253905,77
1774421713.2698307,78
1774421713.2856443,77
1774421713.3011315,74
1774421713.3167565,71
1774421713.336271,66
1774421713.3534696,62
1774421713.3715985,57
1774421713.385579,53
1774421713.4011161,49
1774421713.4209785,47
1774421713.4384027,45
1774421713.4578903,44
1774421713.471837,43
1774421713.487191,43
1774421713.5046625,43
1774421713.523016,42
1774421713.535979,41
1774421713.5551941,40
1774421713.5669594,37
1774421713.582956,34
1774421713.5998645,31
1774421713.6241448,28
1774421713.633471,25
1774421713.6569233,23
1774421713.6726766,20
1774421713.6912107,18
1774421713.7096696,16
1774421713.7243009,14
1774421713.738699,13
1774421713.7589252,11
1774421713.7756712,10
1774421713.7828999,9
1774421713.801054,10
1774421713.824174,15
1774421713.8346217,23
1774421713.8558946,34
1774421713.8679194,45
1774421713.8867767,57
1774421713.9051187,68
1774421713.9208806,76
1774421713.9362237,79
1774421713.952819,79
1774421713.9679158,77
1774421713.9874425,74
1774421714.0001845,69
1774421714.0164182,65
1774421714.0326967,60
1774421714.0521128,55
1774421714.0700336,51
1774421714.0898972,47
1774421714.1044312,45
1774421714.122671,43
1774421714.136986,43
1774421714.1575558,43
1774421714.1716578,43
1774421714.18835,43
1774421714.2025223,42
1774421714.22008,40
1774421714.2370572,39
1774421714.2549276,36
1774421714.2679784,33
1774421714.2865338,30
1774421714.3026109,27
1774421714.3162436,24
1774421714.3341506,21
1774421714.35096,19
1774421714.3669682,17
1774421714.38612,15
1774421714.4022994,13
1774421714.4223073,12
1774421714.4326737,10
1774421714.4578621,9
1774421714.4720213,9
1774421714.48761,13
1774421714.5048854,20
1774421714.524225,31
1774421714.533817,42
1774421714.5583217,55
1774421714.57442,67
1774421714.5842774,76
1774421714.606436,81
1774421714.6224623,82
1774421714.6386101,80
1774421714.6541328,77
1774421714.6703746,73
1774421714.6890535,69
1774421714.7054818,64
1774421714.7173362,59
1774421714.7406344,54
1774421714.759339,50
1774421714.7679586,47
1774421714.7890081,45
1774421714.8020968,44
1774421714.8252997,44
1774421714.833064,44
1774421714.8564236,43
1774421714.8761468,42
1774421714.8835356,41
1774421714.9071617,40
1774421714.9242558,37
1774421714.9404633,34
1774421714.9564314,31
1774421714.9773312,28
1774421714.9864228,25
1774421715.0046058,22
1774421715.022631,19
1774421715.035258,17
1774421715.052806,15
1774421715.068691,13
1774421715.0853198,11
1774421715.1006088,10
1774421715.1215444,9
1774421715.1333923,8
1774421715.152361,9
1774421715.1679132,13
1774421715.1914153,22
1774421715.1994386,33
1774421715.220793,45
1774421715.2326834,59
1774421715.2564135,70
1774421715.2659802,79
1774421715.2916522,83
1774421715.3001437,84
1774421715.3165166,82
1774421715.3350635,79
1774421715.3556263,75
1774421715.3675885,71
1774421715.3923514,67
1774421715.403865,62
1774421715.4196525,57
1774421715.4355066,53
1774421715.4515026,50
1774421715.472518,48
1774421715.4864573,46
1774421715.5014331,45
1774421715.5289428,45
1774421715.5342376,44
1774421715.5519586,43
1774421715.5693839,41
1774421715.5887005,40
1774421715.6007786,37
1774421715.62492,34
1774421715.632769,31
1774421715.65486,28
1774421715.6742795,25
1774421715.6837318,22
1774421715.7026272,19
1774421715.71793,17
1774421715.733472,15
1774421715.7601495,13
1774421715.7697434,11
1774421715.785721,10
1774421715.8019018,9
1774421715.8176007,8
1774421715.841053,9
1774421715.8498576,13
1774421715.87393,21
1774421715.885993,31
1774421715.9011154,43
1774421715.9184883,56
1774421715.9374554,68
1774421715.9615026,76
1774421715.9672744,81
1774421715.9936876,82
1774421715.999972,81
1774421716.0180652,78
1774421716.0350552,75
1774421716.057205,71
1774421716.068066,67
1774421716.0875282,62
1774421716.1014717,58
1774421716.1191938,54
1774421716.1372125,51
1774421716.1531157,48
1774421716.1701787,46
1774421716.1938524,45
1774421716.2000885,45
1774421716.2243683,44
1774421716.238378,43
1774421716.2596447,42
1774421716.2709723,40
1774421716.2900746,38
1774421716.300176,35
1774421716.3170247,32
1774421716.333219,29
1774421716.3532312,26
1774421716.3705215,23
1774421716.3862712,21
1774421716.400995,18
1774421716.4208133,16
1774421716.437877,14
1774421716.4560907,13
1774421716.4718006,12
1774421716.4859993,10
1774421716.5029864,9
1774421716.5220997,9
1774421716.5363455,10
1774421716.5523717,14
1774421716.5686681,23
1774421716.5876284,33
1774421716.600286,45
1774421716.6187975,58
1774421716.638907,69
1774421716.6559803,77
1774421716.6748028,81
1774421716.6874838,82
1774421716.7028604,81
1774421716.7215137,78
1774421716.7384107,74
1774421716.7598207,71
1774421716.767922,66
1774421716.7909756,62
1774421716.8059275,58
1774421716.8220737,54
1774421716.8357284,51
1774421716.8559237,49
1774421716.8682775,47
1774421716.8882997,47
1774421716.9021876,46
1774421716.9241972,46
1774421716.9360514,45
1774421716.9539676,43
1774421716.9760005,41
1774421716.9840646,39
1774421717.003571,37
1774421717.0243025,34
1774421717.0383987,31
1774421717.0530045,28
1774421717.0710342,25
1774421717.083938,22
1774421717.1004627,20
1774421717.1189797,18
1774421717.1331568,16
1774421717.1573274,15
1774421717.1683466,14
1774421717.1899617,13
1774421717.2002962,12
1774421717.2219396,11
1774421717.2346082,11
1774421717.2532072,15
1774421717.2743824,22
1774421717.286921,32
1774421717.3013418,43
1774421717.316731,55
1774421717.3330765,67
1774421717.355243,76
1774421717.3686717,81
1774421717.3843122,83
1774421717.4006064,82
1774421717.4223135,80
1774421717.4385438,77
1774421717.4547162,73
1774421717.47428,69
1774421717.4855661,65
1774421717.50048,60
1774421717.5242682,57
1774421717.540689,53
1774421717.556311,51
1774421717.5682898,50
1774421717.5891166,49
1774421717.5999627,48
1774421717.6195228,48
1774421717.6324964,47
1774421717.6521623,46
1774421717.668229,44
1774421717.68917,42
1774421717.7075338,40
1774421717.7185755,37
1774421717.7419615,34
1774421717.7560818,31
1774421717.7787507,28
1774421717.7824726,25
1774421717.8059843,23
1774421717.8244054,21
1774421717.8365288,19
1774421717.8601677,18
1774421717.8664396,16
1774421717.882644,15
1774421717.9040453,14
1774421717.9220316,13
1774421717.9391892,14
1774421717.9534578,18
1774421717.9679995,26
1774421717.9861476,36
1774421718.0023308,47
1774421718.028945,60
1774421718.032468,71
1774421718.0515316,79
1774421718.065807,83
1774421718.0912132,83
1774421718.1011531,82
1774421718.117666,79
1774421718.1364117,76
1774421718.1603222,72
1774421718.1753702,67
1774421718.1870506,63
1774421718.2012002,59
1774421718.2219653,55
1774421718.2369814,52
1774421718.2497618,50
1774421718.2736094,49
1774421718.2853293,48
1774421718.3034444,48
1774421718.3164554,48
1774421718.3334377,47
1774421718.3569663,45
1774421718.3684502,43
1774421718.3846347,40
1774421718.4008622,38
1774421718.4174836,35
1774421718.4324422,32
1774421718.4495785,29
1774421718.4667752,26
1774421718.4844608,24
1774421718.505819,21
1774421718.5232291,19
1774421718.5441246,17
1774421718.5543673,16
1774421718.575718,15
1774421718.591537,13
1774421718.6074874,12
1774421718.6193037,12
1774421718.6399102,13
1774421718.6564727,18
1774421718.6725533,26
1774421718.684866,37
1774421718.7001164,48
1774421718.7195933,60
1774421718.7357514,71
1774421718.757691,79
1774421718.767937,82
1774421718.7836444,82
1774421718.7995625,80
1774421718.8164542,77
1774421718.832421,74
1774421718.8493507,69
1774421718.8690398,65
1774421718.8869138,60
1774421718.9024942,56
1774421718.925507,52
1774421718.9356213,49
1774421718.9582357,48
1774421718.9718192,47
1774421718.989817,47
1774421719.0023324,47
1774421719.0164278,46
1774421719.0374513,45
1774421719.0500963,44
1774421719.068356,41
1774421719.0899994,40
1774421719.101385,37
1774421719.1175957,33
1774421719.1360774,30
1774421719.1495163,27
1774421719.1660209,25
1774421719.1832936,22
1774421719.2009737,20
1774421719.2194877,18
1774421719.2354722,17
1774421719.2555451,15
1774421719.2713788,14
1774421719.2840302,13
1774421719.3013878,12
1774421719.316917,13
1774421719.334138,18
1774421719.3530724,27
1774421719.3703785,37
1774421719.3883781,49
1774421719.407419,62
1774421719.42175,72
1774421719.4385421,79
1774421719.452643,82
1774421719.4681761,82
1774421719.4849453,80
1774421719.5055506,77
1774421719.5193167,73
1774421719.537486,68
1774421719.556401,63
1774421719.572211,59
1774421719.590787,54
1774421719.5999029,51
1774421719.6180077,48
1774421719.632399,47
1774421719.6614146,46
1774421719.6665509,46
1774421719.690174,46
1774421719.7047179,46
1774421719.717744,45
1774421719.7371147,43
1774421719.7523112,41
1774421719.7662318,39
1774421719.7841842,36
1774421719.807299,32
1774421719.8162367,29
1774421719.835376,26
1774421719.8494992,24
1774421719.8680418,21
1774421719.8838453,19
1774421719.8992214,17
1774421719.9226696,15
1774421719.9359908,13
1774421719.9507685,12
1774421719.9677386,11
1774421719.99244,13
1774421720.0008855,19
1774421720.0219526,28
1774421720.033154,40
1774421720.0559313,52
1774421720.0687766,64
1774421720.088009,75
1774421720.0990324,81
1774421720.120064,83
1774421720.1359744,83
1774421720.1495025,80
1774421720.168188,77
1774421720.1843572,72
1774421720.201261,68
1774421720.216381,63
1774421720.2394793,58
1774421720.2577305,53
1774421720.2742214,50
1774421720.2900627,47
1774421720.3013692,46
1774421720.3173075,45
1774421720.3360283,45
1774421720.3505938,45
1774421720.3688087,44
1774421720.3866117,43
1774421720.4017532,41
1774421720.4230847,40
1774421720.4323702,37
1774421720.4551547,34
1774421720.4656649,30
1774421720.4837012,27
1774421720.5000079,24
1774421720.5182629,21
1774421720.5352976,19
1774421720.5513954,17
1774421720.5663543,15
1774421720.582765,13
1774421720.6078246,12
1774421720.6240473,10
1774421720.6367314,9
1774421720.6527178,9
1774421720.6718662,13
1774421720.6853998,20
1774421720.7043507,30
1774421720.7162938,42
1774421720.7395418,56
1774421720.7543428,70
1774421720.7680576,80
1774421720.790356,86
1774421720.8015232,89
1774421720.8214169,88
1774421720.833631,86
1774421720.8534164,83
1774421720.8657007,79
1774421720.8832037,75
1774421720.9002924,70
1774421720.9170144,65
1774421720.9349442,61
1774421720.9581995,57
1774421720.9763823,54
1774421720.9908779,52
1774421721.0054379,51
1774421721.0244036,50
1774421721.0398874,49
1774421721.0529513,49
1774421721.067834,47
1774421721.0882099,45
1774421721.1028237,42
1774421721.1223829,40
1774421721.1383657,36
1774421721.1612704,33
1774421721.169501,30
1774421721.186355,26
1774421721.2026176,23
1774421721.2212646,21
1774421721.2346659,18
1774421721.2514007,16
1774421721.2665412,14
1774421721.2911162,13
1774421721.3007154,11
1774421721.3160038,10
1774421721.3326101,10
1774421721.3568041,12
1774421721.37086,18
1774421721.3942683,28
1774421721.4046555,40
1774421721.424345,53
1774421721.4409146,67
1774421721.451178,78
1774421721.4714715,85
1774421721.490522,88
1774421721.5037737,89
1774421721.5215676,87
1774421721.534912,84
1774421721.5594075,80
1774421721.5702848,75
1774421721.5866804,71
1774421721.6011076,66
1774421721.6169865,62
1774421721.6331866,58
1774421721.6534429,54
1774421721.6697989,52
1774421721.6895084,50
1774421721.7011414,50
1774421721.716129,49
1774421721.7346761,48
1774421721.7531538,46
1774421721.7685554,44
1774421721.7858477,42
1774421721.8030512,39
1774421721.8228164,36
1774421721.8397632,33
1774421721.857403,29
1774421721.871589,26
1774421721.8909092,23
1774421721.8993094,20
1774421721.9235635,17
1774421721.9340296,15
1774421721.9500515,13
1774421721.9659946,12
1774421721.9908428,10
1774421722.0021188,9
1774421722.0299795,8
1774421722.0322409,8
1774421722.0518758,11
1774421722.0696828,18
1774421722.0847232,29
1774421722.0989807,40
1774421722.1233714,54
1774421722.1373172,67
1774421722.1569638,78
1774421722.171642,84
1774421722.1892598,86
1774421722.206058,86
1774421722.2222755,84
1774421722.233247,81
1774421722.2514691,77
1774421722.267509,72
1774421722.2860909,67
1774421722.3016634,63
1774421722.3164554,58
1774421722.3327677,54
1774421722.3529942,51
1774421722.3692012,49
1774421722.383202,48
1774421722.3998973,47
1774421722.4212258,47
1774421722.4332771,45
1774421722.4614956,44
1774421722.474168,42
1774421722.492068,40
1774421722.5075083,37
1774421722.5242753,34
1774421722.5384905,30
1774421722.5551803,27
1774421722.5714796,24
1774421722.59078,21
1774421722.6019804,18
1774421722.623759,15
1774421722.6372578,13
1774421722.653664,12
1774421722.6689105,10
1774421722.683923,9
1774421722.7002032,7
1774421722.717576,7
1774421722.7335727,8
1774421722.7494798,12
1774421722.7699387,21
1774421722.7905207,32
1774421722.801231,45
1774421722.8242164,58
1774421722.832792,71
1774421722.8511484,79
1774421722.87123,83
1774421722.8908014,84
1774421722.8996735,83
1774421722.9199097,80
1774421722.9370327,76
1774421722.9495177,72
1774421722.9722245,67
1774421722.9843853,62
1774421723.0021956,57
1774421723.0212085,53
1774421723.0341952,50
1774421723.052181,47
1774421723.0681918,46
1774421723.084162,45
1774421723.1024413,45
1774421723.1176267,44
1774421723.137585,43
1774421723.151364,41
1774421723.1696677,40
1774421723.1913474,37
1774421723.201264,34
1774421723.2225673,30
1774421723.233862,27
1774421723.2580626,24
1774421723.2677295,21
1774421723.287151,18
1774421723.3047264,15
1774421723.3159502,13
1774421723.3338158,11
1774421723.350723,9
1774421723.3693807,8
1774421723.38699,6
1774421723.4035807,5
1774421723.4188282,6
1774421723.4351156,10
1774421723.451096,17
1774421723.4673162,28
1774421723.483079,40
1774421723.5013342,54
1774421723.5246854,66
1774421723.5348003,76
1774421723.5586243,82
1774421723.5701566,83
1774421723.5915241,82
1774421723.6019309,80
1774421723.6170235,76
1774421723.6336508,71
1774421723.653174,67
1774421723.6658764,61
1774421723.6892183,57
1774421723.6995819,52
1774421723.7170978,49
1774421723.737931,46
1774421723.7515852,44
1774421723.7698424,44
1774421723.7887297,43
1774421723.7995725,43
1774421723.8197207,42
1774421723.8371549,40
1774421723.8495865,39
1774421723.8657348,36
1774421723.8868124,33
1774421723.9031115,30
1774421723.9191756,26
1774421723.9357078,23
1774421723.951523,20
1774421723.9698784,17
1774421723.9844754,14
1774421724.0009518,12
1774421724.01625,10
1774421724.0321176,8
1774421724.051666,6
1774421724.0675864,5
1774421724.08607,4
1774421724.099509,4
1774421724.120535,8
1774421724.1353734,16
1774421724.1503022,27
1774421724.1689723,40
1774421724.1902957,53
1774421724.1998386,66
1774421724.215697,75
1774421724.2345612,80
1774421724.2491913,82
1774421724.2711565,81
1774421724.2854815,78
1774421724.3000944,74
1774421724.318246,69
1774421724.3331034,64
1774421724.3549755,59
1774421724.3680172,54
1774421724.3881238,50
1774421724.402176,46
1774421724.4186065,44
1774421724.4340887,43
1774421724.4555922,43
1774421724.468111,43
1774421724.4851797,42
1774421724.4992495,41
1774421724.519511,40
1774421724.5355775,39
1774421724.5512447,36
1774421724.5671833,33
1774421724.5844052,30
1774421724.59963,26
1774421724.622134,23
1774421724.6347594,20
1774421724.6507287,17
1774421724.670684,15
1774421724.6890345,13
1774421724.7038498,11
1774421724.7209597,9
1774421724.7362807,7
1774421724.7588925,6
1774421724.7708654,6
1774421724.7909098,10
1774421724.8016627,17
1774421724.8218262,28
1774421724.8329225,40
1774421724.8527942,54
1774421724.8655188,66
1774421724.8848565,76
1774421724.900845,81
1774421724.9207726,83
1774421724.9324288,81
1774421724.9575825,78
1774421724.9691281,74
1774421724.9856734,69
1774421725.0038557,64
1774421725.017837,59
1774421725.0398746,54
1774421725.0588176,50
1774421725.0719705,47
1774421725.0890112,45
1774421725.1032164,44
1774421725.1241353,44
1774421725.1359532,44
1774421725.1501453,43
1774421725.1680062,42
1774421725.1949556,41
1774421725.201856,40
1774421725.2168684,37
1774421725.2321022,34
1774421725.2500448,31
1774421725.2659254,27
1774421725.2821784,24
1774421725.2987516,21
1774421725.3193746,19
1774421725.334544,16
1774421725.3552034,14
1774421725.373905,12
1774421725.390531,10
1774421725.4022844,8
1774421725.4224494,8
1774421725.4332428,10
1774421725.4558861,17
1774421725.4695928,27
1774421725.4859812,39
1774421725.5015273,52
1774421725.5211318,65
1774421725.537277,76
1774421725.553628,82
1774421725.5668395,85
1774421725.584301,84
1774421725.6003597,82
1774421725.616032,78
1774421725.6322625,74
1774421725.6511354,69
1774421725.6707048,63
1774421725.6880274,59
1774421725.7059534,54
1774421725.7225091,50
1774421725.737007,48
1774421725.751226,46
1774421725.7700803,46
1774421725.7921524,45
1774421725.8041382,45
1774421725.8174443,44
1774421725.834258,43
1774421725.8504927,40
1774421725.8670826,39
1774421725.8834004,36
1774421725.900131,32
1774421725.9198203,29
1774421725.9360254,26
1774421725.9516883,23
1774421725.9672272,20
1774421725.983722,17
1774421725.9999757,15
1774421726.0200553,13
1774421726.032078,11
1774421726.0587971,10
1774421726.072905,8
1774421726.0919733,9
1774421726.105877,13
1774421726.1166306,21
1774421726.139904,32
1774421726.157426,44
1774421726.16569,59
1774421726.1848261,72
1774421726.1999106,82
1774421726.2227755,88
1774421726.2378857,90
1774421726.2586608,89
1774421726.271635,87
1774421726.2864864,83
1774421726.3036501,79
1774421726.316402,75
1774421726.3329742,70
1774421726.351664,65
1774421726.3673105,61
1774421726.3894405,57
1774421726.3987696,54
1774421726.4178815,52
1774421726.4323986,50
1774421726.45285,50
1774421726.4727085,49
1774421726.4930358,48
1774421726.5018039,46
1774421726.518757,43
1774421726.5330143,41
1774421726.5565133,38
1774421726.5696926,35
1774421726.5846276,31
1774421726.605981,28
1774421726.6220574,25
1774421726.6382122,22
1774421726.6516764,19
1774421726.6691442,17
1774421726.6850152,15
1774421726.7010746,13
1774421726.7172384,11
1774421726.7340004,10
1774421726.7596998,9
1774421726.7657168,12
1774421726.7913024,18
1774421726.8021367,28
1774421726.8175335,40
1774421726.8321412,54
1774421726.854135,67
1774421726.8656557,78
1774421726.8901563,85
1774421726.8999853,89
1774421726.9205067,89
1774421726.936897,87
1774421726.9559734,84
1774421726.9755294,81
1774421726.9829788,77
1774421726.999988,72
1774421727.0159628,67
1774421727.0337653,63
1774421727.0524845,59
1774421727.0710702,55
1774421727.0922854,53
1774421727.0993984,51
1774421727.1153822,50
1774421727.1351135,49
1774421727.152675,48
1774421727.1683493,46
1774421727.1893842,44
1774421727.2000728,41
1774421727.2212603,39
1774421727.2333298,36
1774421727.2513525,32
1774421727.2718866,29
1774421727.2862115,25
1774421727.301859,22
1774421727.3166714,19
1774421727.3337822,17
1774421727.3543954,15
1774421727.369152,13
1774421727.3881142,11
1774421727.4000325,10
1774421727.4200218,8
1774421727.432938,7
1774421727.4506907,9
1774421727.4718657,13
1774421727.4910553,22
1774421727.5021446,33
1774421727.5180686,46
1774421727.5439389,59
1774421727.5576353,71
1774421727.5667279,80
1774421727.587293,84
1774421727.6000395,86
1774421727.62241,85
1774421727.6323824,82
1774421727.6552522,79
1774421727.6652706,75
1774421727.6873007,70
1774421727.7039657,66
1774421727.7185905,61
1774421727.735883,57
1774421727.7507923,53
1774421727.7722332,51
1774421727.7843177,49
1774421727.7988243,48
1774421727.818354,47
1774421727.8320453,46
1774421727.8554199,45
1774421727.869355,43
1774421727.8894536,40
1774421727.9027693,38
1774421727.9191458,35
1774421727.936548,31
1774421727.957621,28
1774421727.9683635,24
1774421727.9904056,21
1774421728.0006757,19
1774421728.0218928,16
1774421728.0332572,14
1774421728.0593112,12
1774421728.065285,10
1774421728.0826018,9
1774421728.104232,7
1774421728.1170123,6
1774421728.1337447,6
1774421728.1539476,8
1774421728.1741943,14
1774421728.1847703,23
1774421728.1998272,35
1774421728.215723,48
1774421728.236981,61
1774421728.2496428,72
1774421728.271765,79
1774421728.291012,83
1774421728.3076944,83
1774421728.3162582,81
1774421728.3335872,79
1774421728.358094,75
1774421728.3671908,71
1774421728.3892803,66
1774421728.4035118,61
1774421728.420039,57
1774421728.4319785,53
1774421728.4570587,50
1774421728.4741294,47
1774421728.4835804,46
1774421728.499143,45
1774421728.523665,45
1774421728.532024,44
1774421728.5637674,42
1774421728.5708914,40
1774421728.5934029,38
1774421728.6081743,35
1774421728.6246178,32
1774421728.6351101,29
1774421728.6586576,25
1774421728.6744165,22
1774421728.690739,19
1774421728.7028527,17
1774421728.7227123,14
1774421728.7356513,12
1774421728.7537913,10
1774421728.7699993,9
1774421728.7833998,8
1774421728.8002083,6
1774421728.8176622,5
1774421728.83294,6
1774421728.8544273,10
1774421728.8652387,18
1774421728.887406,28
1774421728.907514,40
1774421728.9241302,53
1774421728.9380713,65
1774421728.9574287,74
1774421728.9682596,79
1774421728.9878488,81
1774421729.001364,80
1774421729.0220234,78
1774421729.038369,74
1774421729.0515904,70
1774421729.0676386,66
1774421729.088705,61
1774421729.104475,56
1774421729.1221774,52
1774421729.1364417,49
1774421729.1539125,46
1774421729.168074,45
1774421729.1908073,44
1774421729.1989756,44
1774421729.224789,43
1774421729.232084,42
1774421729.2618253,40
1774421729.2651904,39
1774421729.293973,36
1774421729.2997596,33
1774421729.3161714,30
1774421729.34107,27
1774421729.351795,23
1774421729.3720322,20
1774421729.382459,18
1774421729.4018807,15
1774421729.4241595,13
1774421729.4378898,11
1774421729.454143,10
1774421729.469718,8
1774421729.4870477,7
1774421729.5038133,6
1774421729.523678,6
1774421729.535796,9
1774421729.5556595,16
1774421729.5725014,26
1774421729.5909958,38
1774421729.599487,50
1774421729.6249237,63
1774421729.635923,73
1774421729.6520667,79
1774421729.6651647,81
1774421729.6889372,81
1774421729.7075157,78
1774421729.7210555,75
1774421729.7407727,71
1774421729.756762,66
1774421729.7718308,61
1774421729.792191,57
1774421729.8033357,52
1774421729.8151536,49
1774421729.8369503,46
1774421729.8529077,45
1774421729.8690705,44
1774421729.896843,44
1774421729.903098,43
1774421729.9216697,42
1774421729.9329383,41
1774421729.9646344,40
1774421729.9663243,37
1774421729.9830678,34
1774421729.9996903,31
1774421730.0193336,27
1774421730.0338967,24
1774421730.0492556,21
1774421730.0652142,18
1774421730.0912302,15
1774421730.106165,13
1774421730.1211014,11
1774421730.1359487,10
1774421730.150014,8
1774421730.1715825,7
1774421730.1875744,6
1774421730.2020006,5
1774421730.2154355,6
1774421730.2377307,11
1774421730.2594771,19
1774421730.2659636,30
1774421730.29138,42
1774421730.2988098,55
1774421730.316856,67
1774421730.3328223,75
1774421730.3560886,79
1774421730.3686366,80
1774421730.3851714,78
1774421730.4020655,75
1774421730.4151804,71
1774421730.4321578,67
1774421730.4580138,62
1774421730.466637,57
1774421730.4899666,53
1774421730.4994123,49
1774421730.5214367,46
1774421730.5373573,44
1774421730.5533926,43
1774421730.5724077,42
1774421730.5890048,42
1774421730.6026988,42
1774421730.62045,41
1774421730.6359618,40
1774421730.6556304,38
1774421730.665508,35
1774421730.6881893,32
1774421730.700416,29
1774421730.7170382,25
1774421730.7356527,22
1774421730.757071,20
1774421730.7687018,17
1774421730.782499,15
1774421730.7999725,13
1774421730.8220923,11
1774421730.8319702,10
1774421730.85694,8
1774421730.8680134,7
1774421730.8887963,7
1774421730.900645,10
1774421730.921654,16
1774421730.937419,25
1774421730.957451,37
1774421730.9668224,49
1774421730.9853103,61
1774421731.0030797,70
1774421731.0248709,75
1774421731.0334544,77
1774421731.049511,76
1774421731.0718756,73
1774421731.097188,69
1774421731.1034384,65
1774421731.1220353,60
1774421731.1346838,55
1774421731.1503296,50
1774421731.1667998,46
1774421731.190588,43
1774421731.2004545,41
1774421731.2176566,40
1774421731.2325516,40
1774421731.2539375,40
1774421731.2671485,40
1774421731.287167,40
1774421731.2984166,39
1774421731.315385,37
1774421731.332761,34
1774421731.352774,31
1774421731.3677838,28
1774421731.3867164,25
1774421731.3989294,23
1774421731.4184425,20
1774421731.4397411,18
1774421731.4566813,16
1774421731.4713495,14
1774421731.484693,12
1774421731.4997633,10
1774421731.526706,9
1774421731.5389256,8
1774421731.559153,9
1774421731.566993,14
1774421731.5858116,22
1774421731.598908,33
1774421731.616262,44
1774421731.6318905,56
1774421731.6498578,66
1774421731.6690972,73
1774421731.6867206,76
1774421731.700545,75
1774421731.7188509,73
1774421731.7317555,70
1774421731.75027,65
1774421731.7740617,61
1774421731.7907515,56
1774421731.8007734,51
1774421731.8241673,47
1774421731.8400571,43
1774421731.8592322,41
1774421731.8707573,40
1774421731.8878117,40
1774421731.9082022,40
1774421731.916357,40
1774421731.9342825,40
1774421731.9548395,39
1774421731.9679437,37
1774421731.9844193,35
1774421732.0011344,32
1774421732.018456,29
1774421732.0326307,26
1774421732.051935,24
1774421732.0668027,21
1774421732.0848918,19
1774421732.1001902,16
1774421732.1166463,15
1774421732.1328535,13
1774421732.148937,11
1774421732.165741,10
1774421732.1840408,9
1774421732.2002807,8
1774421732.2164495,10
1774421732.2327514,16
1774421732.250832,25
1774421732.2660487,36
1774421732.2825024,47
1774421732.3084726,59
1774421732.3162794,67
1774421732.3326035,72
1774421732.3485677,74
1774421732.3672972,73
1774421732.383731,70
1774421732.4005005,67
1774421732.4219253,63
1774421732.4344091,59
1774421732.4513595,54
1774421732.4669223,50
1774421732.490906,46
1774421732.4989555,43
1774421732.5259058,40
1774421732.5336974,40
1774421732.5530453,39
1774421732.568971,39
1774421732.5912163,39
1774421732.6074266,38
1774421732.6234002,37
1774421732.639225,36
1774421732.6564512,33
1774421732.6726208,31
1774421732.6923213,28
1774421732.7039118,25
1774421732.719766,22
1774421732.7357678,19
1774421732.753549,17
1774421732.7701893,15
1774421732.783307,13
1774421732.8013985,11
1774421732.828457,10
1774421732.8344157,9
1774421732.8523026,8
1774421732.8698792,6
1774421732.89142,6
1774421732.8983285,7
1774421732.922976,11
1774421732.9347336,19
1774421732.9510455,29
1774421732.9719186,40
1774421732.990418,50
1774421733.0054686,59
1774421733.0233939,65
1774421733.03475,68
1774421733.0545683,68
1774421733.0725584,66
1774421733.087309,64
1774421733.102551,61
1774421733.1194618,57
1774421733.1346672,54
1774421733.1506376,50
1774421733.168463,46
1774421733.1876078,43
1774421733.198838,40
1774421733.2208793,39
1774421733.234698,38
1774421733.2501194,37
1774421733.2711897,36
1774421733.2860353,36
1774421733.3069906,35
1774421733.3153615,34
1774421733.332263,32
1774421733.3491025,30
1774421733.3698997,27
1774421733.3898127,25
1774421733.405746,22
1774421733.4213386,19
1774421733.433703,17
1774421733.4535594,15
1774421733.4695883,13
1774421733.4838636,11
1774421733.5009453,10
1774421733.5182426,9
1774421733.5327497,8
1774421733.5507793,7
1774421733.5676856,6
1774421733.585505,5
1774421733.6018999,5
1774421733.6151197,8
1774421733.6321886,13
1774421733.6586218,21
1774421733.66971,31
1774421733.6827667,40
1774421733.701164,50
1774421733.7189186,57
1774421733.73211,61
1774421733.7549102,62
1774421733.770741,61
1774421733.7832158,59
1774421733.7999468,57
1774421733.815281,54
1774421733.8319204,51
1774421733.8511481,48
1774421733.8675694,45
1774421733.8872552,41
1774421733.9005988,39
1774421733.9155922,37
1774421733.932048,35
1774421733.9490027,34
1774421733.9673133,33
1774421733.9888165,33
1774421734.0012474,32
1774421734.0159507,32
1774421734.0359738,30
1774421734.0529323,29
1774421734.0653722,27
1774421734.085978,24
1774421734.1046944,22
1774421734.122497,19
1774421734.1384187,17
1774421734.1544032,15
1774421734.1695235,13
1774421734.1854513,11
1774421734.2010298,10
1774421734.2175794,9
1774421734.2363553,8
1774421734.2563732,7
1774421734.2702668,6
1774421734.285846,5
1774421734.2990227,5
1774421734.315967,4
1774421734.3328483,5
1774421734.3551393,8
1774421734.3665633,14
1774421734.3821785,22
1774421734.4002452,32
1774421734.4228902,40
1774421734.4318945,49
1774421734.4629204,55
1774421734.4656613,58
1774421734.490805,58
1774421734.504616,56
1774421734.516826,54
1774421734.5365558,52
1774421734.5525305,49
1774421734.5714982,46
1774421734.5835052,43
1774421734.6045642,40
1774421734.6184597,38
1774421734.6349256,35
1774421734.6615663,33
1774421734.6654973,32
1774421734.6892114,32
1774421734.70642,31
1774421734.7178526,31
1774421734.7328756,31
1774421734.7517586,30
1774421734.7694411,29
1774421734.786222,27
1774421734.8042772,25
1774421734.8236074,23
1774421734.8319435,21
1774421734.8540711,18
1774421734.86751,16
1774421734.8880994,14
1774421734.9015229,13
1774421734.923575,11
1774421734.9362953,10
1774421734.9516683,9
1774421734.9678297,8
1774421734.9845996,7
1774421734.999619,7
1774421735.018847,6
1774421735.0369906,5
1774421735.0498452,5
1774421735.0680056,7
1774421735.0859916,12
1774421735.1052098,19
1774421735.1241047,28
1774421735.136876,37
1774421735.1544402,45
1774421735.167816,52
1774421735.1876845,55
1774421735.2017136,56
1774421735.221191,55
1774421735.2334075,53
1774421735.2555013,51
1774421735.265329,48
1774421735.2875931,45
1774421735.3014216,42
1774421735.315527,40
1774421735.3327653,37
1774421735.356298,35
1774421735.3678954,33
1774421735.3856258,32
1774421735.3987818,32
1774421735.4254925,32
1774421735.437402,32
1774421735.4618611,32
1774421735.467783,31
1774421735.4895525,30
1774421735.5051968,29
1774421735.5194902,27
1774421735.5420258,25
1774421735.5564072,23
1774421735.567905,21
1774421735.5878105,19
1774421735.6004088,17
1774421735.6169965,15
1774421735.6344273,14
1774421735.651196,12
1774421735.6649697,11
1774421735.6840053,11
1774421735.70422,10
1774421735.7171497,9
1774421735.732124,9
1774421735.7482557,8
1774421735.7662857,8
1774421735.7855327,8
1774421735.800578,9
1774421735.8276067,13
1774421735.8382041,20
1774421735.852662,29
1774421735.8661642,39
1774421735.889126,47
1774421735.902643,54
1774421735.9189901,59
1774421735.9373505,60
1774421735.9523842,60
1774421735.9684439,58
1774421735.9831982,55
1774421735.9999855,52
1774421736.027185,49
1774421736.0327454,46
1774421736.052775,43
1774421736.066007,40
1774421736.0869777,38
1774421736.099812,37
1774421736.125224,36
1774421736.1329136,35
1774421736.158363,35
1774421736.1706998,36
1774421736.190957,36
1774421736.2018204,35
1774421736.225821,34
1774421736.2352426,33
1774421736.2578938,31
1774421736.2718341,29
1774421736.287511,27
1774421736.3018537,25
1774421736.3153589,23
1774421736.332576,21
1774421736.3599486,19
1774421736.3684392,17
1774421736.3874612,16
1774421736.402365,15
1774421736.4204032,14
1774421736.4318774,13
1774421736.457115,13
1774421736.4668643,12
1774421736.486688,11
1774421736.4996746,11
1774421736.516767,12
1774421736.5369117,15
1774421736.55467,22
1774421736.5698268,30
1774421736.5863628,40
1774421736.6066008,48
1774421736.6225116,56
1774421736.638215,62
1774421736.6576192,64
1774421736.6705222,64
1774421736.6866443,62
1774421736.702008,59
1774421736.7205732,56
1774421736.733518,53
1774421736.7500706,50
1774421736.7669835,47
1774421736.7889616,43
1774421736.8012567,41
1774421736.8149009,40
1774421736.8324158,39
1774421736.8532522,39
1774421736.8667266,39
1774421736.8937984,39
1774421736.8987088,39
1774421736.9242778,38
1774421736.9408264,38
1774421736.957626,36
1774421736.9716096,34
1774421736.9896088,32
1774421736.9993966,30
1774421737.0218391,28
1774421737.0383923,25
1774421737.054987,23
1774421737.0699594,21
1774421737.0907378,19
1774421737.1002593,18
1774421737.1175675,17
1774421737.1336312,15
1774421737.1532452,14
1774421737.1657598,14
1774421737.1819034,13
1774421737.1981356,12
1774421737.2227142,12
1774421737.232294,15
1774421737.2569013,20
1774421737.2699776,28
1774421737.2895079,38
1774421737.2984478,47
1774421737.3159091,57
1774421737.3316138,64
1774421737.355726,68
1774421737.366954,69
1774421737.3841357,68
1774421737.4032621,65
1774421737.4215178,62
1774421737.4359663,58
1774421737.4490454,55
1774421737.472023,51
1774421737.4827812,47
1774421737.4996,44
1774421737.515422,42
1774421737.5334828,41
1774421737.552604,40
1774421737.5688663,40
1774421737.5818076,41
1774421737.6010654,41
1774421737.6200478,41
1774421737.6317334,40
1774421737.654167,40
1774421737.6655602,38
1774421737.6844654,36
1774421737.6980731,33
1774421737.7213328,31
1774421737.731805,29
1774421737.752748,26
1774421737.767539,24
1774421737.784553,22
1774421737.8007262,21
1774421737.8170192,19
1774421737.835467,18
1774421737.8549964,16
1774421737.8674247,15
1774421737.8907566,14
1774421737.9038327,15
1774421737.9224653,18
1774421737.9326205,25
1774421737.957081,34
1774421737.9678414,43
1774421737.981749,54
1774421737.9998546,63
1774421738.0191016,69
1774421738.0319128,72
1774421738.0504894,72
1774421738.06547,70
1774421738.0833104,67
1774421738.1039479,64
1774421738.1206884,60
1774421738.1367145,56
1774421738.1555164,52
1774421738.1682346,48
1774421738.185517,45
1774421738.2000127,43
1774421738.2235384,42
1774421738.2318933,42
1774421738.2550058,42
1774421738.2654393,43
1774421738.2832673,43
1774421738.2984366,43
1774421738.3159409,42
1774421738.33358,40
1774421738.3521326,39
1774421738.370621,36
1774421738.382238,34
1774421738.4002216,31
1774421738.4211278,29
1774421738.4332855,27
1774421738.454466,25
1774421738.4648106,23
1774421738.4906955,21
1774421738.5023327,19
1774421738.519162,17
1774421738.5341873,16
1774421738.5516393,15
1774421738.5808117,16
1774421738.5913832,20
1774421738.5982478,28
1774421738.6261573,38
1774421738.638844,48
1774421738.6620517,59
1774421738.6719806,68
1774421738.6914985,74
1774421738.7023897,77
1774421738.7161129,77
1774421738.7370646,74
1774421738.7575254,71
1774421738.7715833,67
1774421738.7887518,63
1774421738.801404,59
1774421738.8202746,55
1774421738.836129,51
1774421738.8525567,48
1774421738.86679,46
1774421738.8819125,45
1774421738.900419,45
1774421738.9162767,45
1774421738.9313009,45
1774421738.948359,45
1774421738.9667237,45
1774421738.9905052,43
1774421738.9998825,41
1774421739.0197406,40
1774421739.0333922,37
1774421739.050882,35
1774421739.0712547,32
1774421739.0897582,29
1774421739.1017768,27
1774421739.1218772,25
1774421739.1354206,23
1774421739.1528275,21
1774421739.1679914,19
1774421739.1847847,18
1774421739.200039,16
1774421739.21984,16
1774421739.2330697,17
1774421739.249972,22
1774421739.2646353,30
1774421739.2887766,40
1774421739.2979543,51
1774421739.318723,63
1774421739.3339775,74
1774421739.3498182,81
1774421739.3679879,85
1774421739.3903883,85
1774421739.4054894,84
1774421739.424402,82
1774421739.4401605,78
1774421739.45624,75
1774421739.4666095,71
1774421739.4906209,66
1774421739.5027232,63
1774421739.5187538,59
1774421739.534264,56
1774421739.5509105,54
1774421739.565341,53
1774421739.5874069,53
1774421739.6003542,52
1774421739.6178212,52
1774421739.6413472,51
1774421739.6596084,49
1774421739.6676598,47
1774421739.6943796,45
1774421739.701358,42
1774421739.7247045,40
1774421739.7312927,37
1774421739.7563133,34
1774421739.7705646,31
1774421739.7881956,28
1774421739.8063006,26
1774421739.824364,24
1774421739.838331,22
1774421739.8543334,20
1774421739.8715017,19
1774421739.8856301,17
1774421739.901165,17
1774421739.921987,18
1774421739.9326017,22
1774421739.9507997,30
1774421739.967776,40
1774421739.9904752,51
1774421740.000406,64
1774421740.0241501,75
1774421740.0319357,83
1774421740.0561142,87
1774421740.0646095,88
1774421740.08944,88
1774421740.1001258,86
1774421740.1196952,83
1774421740.1312332,79
1774421740.1581051,75
1774421740.1653159,71
1774421740.1845393,67
1774421740.2038808,63
1774421740.2203045,60
1774421740.2351115,57
1774421740.2508507,56
1774421740.271643,55
1774421740.28142,54
1774421740.2989311,53
1774421740.31499,52
1774421740.3330204,50
1774421740.358245,48
1774421740.370555,45
1774421740.3903582,42
1774421740.399573,40
1774421740.4227173,36
1774421740.4364188,33
1774421740.451014,30
1774421740.467686,27
1774421740.4874816,25
1774421740.498338,23
1774421740.520521,21
1774421740.5364668,19
1774421740.5526552,18
1774421740.56822,16
1774421740.5864532,15
1774421740.6003478,15
1774421740.6167197,17
1774421740.632666,23
1774421740.6515021,31
1774421740.666084,41
1774421740.688721,53
1774421740.702559,64
1774421740.7251904,74
1774421740.7358532,80
1774421740.7540996,83
1774421740.768615,83
1774421740.7838628,81
1774421740.7997673,79
1774421740.821854,76
1774421740.8326242,72
1774421740.854868,68
1774421740.864522,64
1774421740.8869267,60
1774421740.8990626,56
1774421740.9180636,53
1774421740.9342234,51
1774421740.9575994,50
1774421740.9688358,49
1774421740.9820406,48
1774421740.9982572,47
1774421741.0170934,46
1774421741.03469,44
1774421741.0521028,42
1774421741.0718477,40
1774421741.0866227,37
1774421741.1050189,34
1774421741.1205554,31
1774421741.1355877,28
1774421741.1574988,25
1774421741.169121,23
1774421741.1900535,21
1774421741.198813,19
1774421741.2151194,17
1774421741.232214,16
1774421741.2500162,14
1774421741.26452,13
1774421741.2849774,14
1774421741.3007758,17
1774421741.3152611,23
1774421741.332127,32
1774421741.355047,42
1774421741.3662128,53
1774421741.3894548,63
1774421741.4067118,71
1774421741.4210956,75
1774421741.4347415,77
1774421741.4533384,76
1774421741.472025,74
1774421741.4862034,71
1774421741.5044343,67
1774421741.5220597,63
1774421741.5312996,59
1774421741.5550492,55
1774421741.5678966,51
1774421741.5871103,48
1774421741.6009147,46
1774421741.618162,45
1774421741.6324732,44
1774421741.6506088,44
1774421741.6664608,43
1774421741.682505,42
1774421741.6981907,40
1774421741.721173,39
1774421741.73761,37
1774421741.7603235,34
1774421741.7716022,31
1774421741.7849944,28
1774421741.804845,26
1774421741.823735,23
1774421741.8366742,21
1774421741.8488567,19
1774421741.8659425,17
1774421741.8882978,15
1774421741.9038196,14
1774421741.9166489,12
1774421741.9359925,11
1774421741.9542265,11
1774421741.9684184,12
1774421741.9844549,17
1774421742.0005817,24
1774421742.0173612,34
1774421742.0325427,44
1774421742.0574555,55
1774421742.064517,64
1774421742.0910337,70
1774421742.1013465,73
1774421742.1219227,73
1774421742.1378357,72
1774421742.160325,69
1774421742.1651065,66
1774421742.1882324,62
1774421742.2021656,58
1774421742.222162,54
1774421742.2326531,50
1774421742.2524552,47
1774421742.2717512,44
1774421742.2833984,43
1774421742.3037739,42
1774421742.3166518,42
1774421742.3340626,42
1774421742.3526316,41
1774421742.368999,40
1774421742.3906996,40
1774421742.399737,37
1774421742.4197474,35
1774421742.4323251,32
1774421742.4489355,29
1774421742.4647932,27
1774421742.4951296,24
1774421742.4979508,22
1774421742.5176575,20
1774421742.5328197,18
1774421742.5480525,16
1774421742.5679295,15
1774421742.58623,14
1774421742.6033106,13
1774421742.6173735,13
1774421742.6374173,16
1774421742.6553516,22
1774421742.6686833,31
1774421742.6873336,41
1774421742.7039492,51
1774421742.7230806,61
1774421742.7351503,68
1774421742.749256,72
1774421742.768352,73
1774421742.7837682,71
1774421742.8026102,69
1774421742.816062,65
1774421742.8312197,62
1774421742.857482,57
1774421742.8647065,53
1774421742.8892233,49
1774421742.9026039,46
1774421742.920996,44
1774421742.9343383,42
1774421742.957679,42
1774421742.9706006,42
1774421742.9897134,42
1774421743.0055203,41
1774421743.0193439,40
1774421743.0320265,40
1774421743.049797,37
1774421743.0664294,35
1774421743.0860248,32
1774421743.1008904,29
1774421743.118464,27
1774421743.1325362,24
1774421743.1527297,22
1774421743.1650455,20
1774421743.1908066,18
1774421743.2011867,17
1774421743.2208788,15
1774421743.2329714,14
1774421743.253012,13
1774421743.2645195,14
1774421743.2908704,18
1774421743.2996216,25
1774421743.3158062,34
1774421743.3320184,44
1774421743.3535109,55
1774421743.3673646,64
1774421743.3884745,70
1774421743.398226,73
1774421743.4194736,73
1774421743.4365096,71
1774421743.4526513,68
1774421743.4684513,64
1774421743.484527,60
1774421743.5005417,56
1774421743.523453,52
1774421743.5325737,48
1774421743.5507038,45
1774421743.567189,43
1774421743.5907602,42
1774421743.6002803,41
1774421743.6224477,41
1774421743.6314514,41
1774421743.6576927,41
1774421743.667529,40
1774421743.6936295,39
1774421743.7076545,36
1774421743.716833,34
1774421743.73968,31
1774421743.7542129,28
1774421743.7711518,26
1774421743.7869658,24
1774421743.797695,21
1774421743.8190458,20
1774421743.8355806,18
1774421743.8515272,16
1774421743.8694365,15
1774421743.884991,14
1774421743.9026074,13
1774421743.9243014,13
1774421743.935737,17
1774421743.9559963,23
1774421743.9713655,32
1774421743.992123,42
1774421744.003611,54
1774421744.0240266,64
1774421744.0341234,72
1774421744.053826,77
1774421744.064891,78
1774421744.0895004,78
1774421744.1048567,76
1774421744.1242976,73
1774421744.1326902,70
1774421744.15397,67
1774421744.1695948,63
1774421744.192288,59
1774421744.1977324,55
1774421744.217185,52
1774421744.2335825,50
1774421744.2550175,48
1774421744.2657363,47
1774421744.285799,47
1774421744.2988772,46
1774421744.3150382,45
1774421744.3330967,43
1774421744.3554428,41
1774421744.367829,40
1774421744.382702,37
1774421744.3998606,34
1774421744.4228508,31
1774421744.4325633,28
1774421744.4559166,26
1774421744.4670842,23
1774421744.4867277,21
1774421744.4982367,20
1774421744.5195968,18
1774421744.53553,17
1774421744.5522563,15
1774421744.5738268,14
1774421744.5837574,15
1774421744.6016998,18
1774421744.6185334,24
1774421744.631665,32
1774421744.6515372,42
1774421744.6735022,53
1774421744.681845,63
1774421744.6986537,70
1774421744.7167172,75
1774421744.733644,76
1774421744.752581,76
1774421744.771328,74
1774421744.7904754,71
1774421744.8016372,68
1774421744.815716,65
1774421744.831735,61
1774421744.8546202,57
1774421744.8647816,54
1774421744.8867471,50
1774421744.8999846,47
1774421744.918656,46
1774421744.934099,44
1774421744.9531262,43
1774421744.971551,43
1774421744.982662,41
1774421744.9976885,40
1774421745.0237224,38
1774421745.035139,36
1774421745.05775,33
1774421745.0703049,30
1774421745.0819192,27
1774421745.1020515,24
1774421745.125178,22
1774421745.13131,19
1774421745.149388,17
1774421745.164904,15
1774421745.1827838,14
1774421745.1998422,13
1774421745.21884,11
1774421745.2313375,10
1774421745.2562406,9
1774421745.265718,9
1774421745.2835102,10
1774421745.297784,15
1774421745.3163302,22
1774421745.3316157,30
1774421745.3514342,40
1774421745.3679733,49
1774421745.3876173,57
1774421745.4014592,62
1774421745.416963,64
1774421745.432667,63
1774421745.4528024,62
1774421745.4755385,60
1774421745.4881582,57
1774421745.5041637,54
1774421745.5200946,50
1774421745.5372124,47
1774421745.5519967,43
1774421745.5680652,40
1774421745.5868194,39
1774421745.5988169,37
1774421745.6190977,36
1774421745.6322622,35
1774421745.650207,35
1774421745.6662307,34
1774421745.6845322,33
1774421745.6981733,32
1774421745.7178571,30
1774421745.735168,27
1774421745.75461,25
1774421745.7677262,22
1774421745.7853491,19
1774421745.8087661,17
1774421745.8225217,15
1774421745.8353899,13
1774421745.8537385,12
1774421745.8689442,10
1774421745.8859322,9
1774421745.8977075,8
1774421745.9187515,7
1774421745.937384,6
1774421745.9490192,6
1774421745.9669712,6
1774421745.9852,7
1774421745.9994414,12
1774421746.0162098,19
1774421746.0334368,27
1774421746.0494585,36
1774421746.0652473,44
1774421746.0853581,51
1774421746.0976002,55
1774421746.121259,57
1774421746.1372197,56
1774421746.158145,54
1774421746.173023,52
1774421746.1864572,49
1774421746.1991923,46
1774421746.217257,43
1774421746.2337403,40
1774421746.2529407,38
1774421746.266113,35
1774421746.2812998,33
1774421746.3043032,32
1774421746.314555,32
1774421746.331546,31
1774421746.352853,31
1774421746.366871,31
1774421746.382565,30
1774421746.3986945,28
1774421746.4189796,27
1774421746.431903,24
1774421746.4554758,22
1774421746.4642117,20
1774421746.482008,18
1774421746.498609,16
1774421746.5257049,14
1774421746.5330515,12
1774421746.553578,11
1774421746.5715654,10
1774421746.5896404,9
1774421746.6016626,8
1774421746.6193962,7
1774421746.635135,7
1774421746.6536398,6
1774421746.6698132,6
1774421746.6875463,7
1774421746.700825,10
1774421746.7167406,16
1774421746.7334514,24
1774421746.7511237,33
1774421746.7643914,41
1774421746.7828853,49
1774421746.799775,54
1774421746.824612,57
1774421746.8318756,56
1774421746.8540456,55
1774421746.8678606,52
1774421746.890962,50
1774421746.9001725,47
1774421746.9221408,44
1774421746.9314525,41
1774421746.9516864,39
1774421746.970242,36
1774421746.9862013,34
1774421747.0022287,33
1774421747.016976,32
1774421747.0367794,32
1774421747.0498874,32
1774421747.0657969,32
1774421747.0819192,32
1774421747.0987995,31
1774421747.1279016,29
1774421747.1366541,27
1774421747.1580942,25
1774421747.1677961,23
1774421747.1846898,21
1774421747.1997657,19
1774421747.2166815,17
1774421747.2317631,15
1774421747.2515218,14
1774421747.264183,13
1774421747.2845788,12
1774421747.3018997,11
1774421747.3154812,10
1774421747.3338695,9
1774421747.3538587,9
1774421747.369385,9
1774421747.3864317,13
1774421747.4017744,19
1774421747.416529,27
1774421747.440777,36
1774421747.4498913,45
1774421747.4658973,53
1774421747.4832988,58
1774421747.5018027,60
1774421747.519497,59
1774421747.5329847,58
1774421747.5563278,55
1774421747.5682344,52
1774421747.5901673,49
1774421747.6045487,46
1774421747.6213467,43
1774421747.6319308,40
1774421747.6564958,38
1774421747.6643174,36
1774421747.6867797,36
1774421747.6975121,35
1774421747.7194073,35
1774421747.73545,36
1774421747.752043,36
1774421747.7662742,35
1774421747.7829394,34
1774421747.8001795,33
1774421747.8161027,31
1774421747.8317394,28
1774421747.8490748,26
1774421747.8653386,24
1774421747.89117,22
1774421747.9038272,20
1774421747.9150376,19
1774421747.9334908,17
1774421747.953509,16
1774421747.9723794,15
1774421747.9902537,14
1774421748.003482,13
1774421748.0213087,12
1774421748.0320845,12
1774421748.055036,15
1774421748.0656147,21
1774421748.0814247,29
1774421748.0975676,38
1774421748.1190352,47
1774421748.1320424,56
1774421748.1573656,62
1774421748.1676505,65
1774421748.1900363,66
1774421748.1990752,64
1774421748.215131,61
1774421748.2335272,58
1774421748.2486994,55
1774421748.2650924,52
1774421748.2832825,48
1774421748.2989163,45
1774421748.3151298,42
1774421748.3330007,40
1774421748.3486848,40
1774421748.3680856,40
1774421748.383577,40
1774421748.3981764,40
1774421748.4202142,40
1774421748.432087,40
1774421748.4540446,39
1774421748.464126,38
1774421748.4859514,36
1774421748.4980795,33
1774421748.5212352,31
1774421748.5333216,29
1774421748.5495937,26
1774421748.5682073,24
1774421748.5829608,22
1774421748.604861,21
1774421748.6194456,19
1774421748.635095,18
1774421748.6478794,17
1774421748.6698525,15
1774421748.688528,15
1774421748.7053845,16
1774421748.7236605,20
1774421748.7313292,27
1774421748.7529564,36
1774421748.7711294,46
1774421748.7871435,56
1774421748.8003423,65
1774421748.8191514,71
1774421748.832736,73
1774421748.851041,73
1774421748.8641012,71
1774421748.8824115,68
1774421748.8974178,64
1774421748.9141986,61
1774421748.9407942,57
1774421748.9528537,53
1774421748.9657915,50
1774421748.982877,47
1774421749.0024033,45
1774421749.021109,44
1774421749.0394661,43
1774421749.0536032,43
1774421749.0702474,44
1774421749.0839348,43
1774421749.1054914,43
1774421749.1180048,41
1774421749.1362438,40
1774421749.1534774,38
1774421749.167772,35
1774421749.186831,33
1774421749.2016714,30
1774421749.2169268,28
1774421749.233075,25
1774421749.2645185,23
1774421749.2646427,21
1774421749.2875366,20
1774421749.299378,18
1774421749.315214,17
1774421749.3312082,16
1774421749.3554857,15
1774421749.37013,15
1774421749.38411,16
1774421749.3979774,22
1774421749.420209,30
1774421749.4324784,40
1774421749.449674,51
1774421749.4715643,63
1774421749.485608,73
1774421749.5037985,79
1774421749.5198495,82
1774421749.536831,82
1774421749.5522747,80
1774421749.564607,77
1774421749.5832546,74
1774421749.6011927,71
1774421749.6154282,67
1774421749.631983,63
1774421749.6548584,59
1774421749.6644514,56
1774421749.6917412,53
1774421749.697384,51
1774421749.7190547,50
1774421749.733071,49
1774421749.7513125,49
1774421749.7674823,48
1774421749.7909787,47
1774421749.8067765,46
1774421749.8221986,43
1774421749.8360023,41
1774421749.8548133,39
1774421749.870823,36
1774421749.8861887,33
1774421749.9004095,30
1774421749.9187455,28
1774421749.9366527,25
1774421749.9507658,23
1774421749.972236,21
1774421749.9829164,20
1774421749.998136,18
1774421750.0143192,17
1774421750.032887,16
1774421750.0592158,15
1774421750.064426,15
1774421750.0822513,18
1774421750.0992181,25
1774421750.1243896,35
1774421750.139326,45
1774421750.1525655,57
1774421750.1695278,68
1774421750.1857681,76
1774421750.2053502,80
1774421750.2213192,81
1774421750.2348871,80
1774421750.2532997,78
1774421750.2717645,74
1774421750.2845538,71
1774421750.300225,67
1774421750.31532,63
1774421750.3321426,59
1774421750.3503404,55
1774421750.3646033,52
1774421750.3843215,49
1774421750.3977635,47
1774421750.414418,47
1774421750.4344914,46
1774421750.456568,45
1774421750.4640079,45
1774421750.491597,43
1774421750.4978867,41
1774421750.5230803,40
1774421750.534603,37
1774421750.556121,34
1774421750.572185,31
1774421750.5886092,28
1774421750.599028,26
1774421750.6164575,23
1774421750.6330864,21
1774421750.6521351,19
1774421750.6672883,17
1774421750.6829429,15
1774421750.6988347,14
1774421750.7245162,13
1774421750.732039,12
1774421750.7494986,11
1774421750.765707,11
1774421750.7909756,15
1774421750.8016787,22
1774421750.8227553,31
1774421750.8335257,41
1774421750.8543274,53
1774421750.8643146,63
1774421750.8861136,71
1774421750.8989875,74
1774421750.9165928,75
1774421750.9357219,73
1774421750.954629,70
1774421750.9718213,67
1774421750.9893773,63
1774421751.0024478,59
1774421751.0196235,55
1774421751.0348015,51
1774421751.0509005,47
1774421751.0718837,44
1774421751.0937731,42
1774421751.1017845,41
1774421751.1148217,40
1774421751.1310916,40
1774421751.1592975,40
1774421751.1684651,40
1774421751.188791,39
1774421751.1994462,37
1774421751.2243986,35
1774421751.232884,32
1774421751.2533278,30
1774421751.2658699,27
1774421751.2808125,24
1774421751.2978308,22
1774421751.3154438,20
1774421751.3325136,18
1774421751.3503294,16
1774421751.3691308,14
1774421751.3854527,13
1774421751.4000554,12
1774421751.4194705,11
1774421751.4348676,10
1774421751.450784,10
1774421751.4710279,13
1774421751.4908257,18
1774421751.5018182,27
1774421751.5219932,38
1774421751.5349333,48
1774421751.5527437,59
1774421751.5678139,67
1774421751.5931435,71
1774421751.597507,72
1774421751.6222336,71
1774421751.633822,68
1774421751.6542199,64
1774421751.6668208,61
1774421751.687236,57
1774421751.6973102,53
1774421751.719456,49
1774421751.7306435,45
1774421751.7532556,42
1774421751.766891,40
1774421751.7829642,40
1774421751.8019192,40
1774421751.8160248,40
1774421751.8338103,40
1774421751.8573482,40
1774421751.8706095,39
1774421751.8818014,38
1774421751.9006343,36
1774421751.9259331,33
1774421751.9345217,31
1774421751.9560761,28
1774421751.9680035,26
1774421751.9889162,23
1774421752.0002048,21
1774421752.0206454,19
1774421752.0319488,18
1774421752.0539322,16
1774421752.0689025,15
1774421752.087415,14
1774421752.0979292,13
1774421752.1179173,13
1774421752.1339722,15
1774421752.1541736,21
1774421752.1661565,29
1774421752.184924,40
1774421752.2015798,50
1774421752.2222075,60
1774421752.2378867,67
1774421752.2516255,71
1774421752.2654684,72
1774421752.2871203,71
1774421752.3068159,68
1774421752.3150167,64
1774421752.3308792,60
1774421752.3482146,56
1774421752.3663435,52
1774421752.387454,48
1774421752.4019527,44
1774421752.4148946,42
1774421752.4322731,40
1774421752.4535787,40
1774421752.4639318,40
1774421752.4858582,40
1774421752.498668,40
1774421752.517475,40
1774421752.533809,39
1774421752.5485368,38
1774421752.5641649,36
1774421752.5919595,33
1774421752.6014438,31
1774421752.6220243,28
1774421752.6345327,25
1774421752.65569,23
1774421752.670314,21
1774421752.6894855,19
1774421752.7045639,17
1774421752.7180474,16
1774421752.7340424,15
1774421752.7514522,14
1774421752.7682364,13
1774421752.7855575,12
1774421752.7998774,14
1774421752.8162315,18
1774421752.8323998,26
1774421752.853222,37
1774421752.865035,47
1774421752.8806171,59
1774421752.897206,69
1774421752.9194496,76
1774421752.9339733,79
1774421752.950598,79
1774421752.9663813,77
1774421752.984035,74
1774421752.9996717,71
1774421753.0246873,67
1774421753.0315945,63
1774421753.0564299,59
1774421753.0670047,55
1774421753.08849,52
1774421753.0984862,49
1774421753.120529,48
1774421753.1338665,47
1774421753.1505544,47
1774421753.1673582,47
1774421753.190945,46
1774421753.2014227,45
1774421753.2173345,44
1774421753.2319162,42
1774421753.2523685,40
1774421753.2639663,38
1774421753.2875235,35
1774421753.298018,32
1774421753.3144367,29
1774421753.3321126,27
1774421753.3479762,24
1774421753.3640096,22
1774421753.3862133,21
1774421753.3986647,19
1774421753.4209743,18
1774421753.437221,17
1774421753.4529507,16
1774421753.4704952,15
1774421753.4901102,15
1774421753.5058122,19
1774421753.516019,26
1774421753.5319169,35
1774421753.5563643,46
1774421753.5685453,58
1774421753.590933,70
1774421753.5998745,79
1774421753.6253715,84
1774421753.6317968,85
1774421753.6574476,85
1774421753.6645339,83
1774421753.6872735,80
1774421753.7006598,77
1774421753.7164302,73
1774421753.7304988,69
1774421753.7488291,65
1774421753.764002,61
1774421753.785552,58
1774421753.8015037,55
1774421753.818811,54
1774421753.8335598,53
1774421753.855726,52
1774421753.8675363,52
1774421753.8880398,51
1774421753.9027185,49
1774421753.9216273,47
1774421753.9363432,45
1774421753.9485755,42
1774421753.9677885,40
1774421753.9831727,37
1774421753.9987006,34
1774421754.0222852,31
1774421754.0322711,28
1774421754.0543149,26
1774421754.064047,24
1774421754.0833385,22
1774421754.1071217,21
1774421754.1208806,19
1774421754.1420674,18
1774421754.1618342,17
1774421754.166034,17
1774421754.192065,18
1774421754.2011864,22
1774421754.2217786,29
1774421754.2328622,40
1774421754.2517881,51
1774421754.2642996,63
1774421754.2814927,74
1774421754.2979863,82
1774421754.314832,86
1774421754.331389,88
1774421754.350902,87
1774421754.371389,85
1774421754.3893273,82
1774421754.4013932,78
1774421754.4240718,74
1774421754.4318018,70
1774421754.4551725,66
1774421754.4638767,62
1774421754.4809597,59
1774421754.4971218,56
1774421754.5221813,54
1774421754.534913,53
1774421754.5480475,53
1774421754.5693934,52
1774421754.5830443,51
1774421754.604028,49
1774421754.6144288,47
1774421754.6380353,44
1774421754.660445,41
1774421754.6687474,39
1774421754.6878092,35
1774421754.7086837,32
1774421754.7167418,29
1774421754.7382436,26
1774421754.7566495,24
1774421754.7642615,22
1774421754.7867758,20
1774421754.80381,18
1774421754.8216171,17
1774421754.8344722,16
1774421754.8544695,14
1774421754.8639073,14
1774421754.881779,15
1774421754.9039505,20
1774421754.915434,28
1774421754.9339106,39
1774421754.9486413,50
1774421754.970678,62
1774421754.990881,73
1774421755.00619,80
1774421755.0214376,84
1774421755.0398774,84
1774421755.0495634,83
1774421755.0696402,80
1774421755.0877523,77
1774421755.1030478,73
1774421755.1173248,69
1774421755.1374233,64
1774421755.1509159,60
1774421755.1683404,56
1774421755.1843355,53
1774421755.200335,51
1774421755.216511,50
1774421755.2324996,49
1774421755.2524173,49
1774421755.26385,48
1774421755.2956955,47
1774421755.2973258,45
1774421755.314947,43
1774421755.3343692,40
1774421755.3550627,38
1774421755.3735414,35
1774421755.390718,32
1774421755.4047256,29
1774421755.4238381,26
1774421755.4358478,23
1774421755.4533458,21
1774421755.466553,19
1774421755.487862,18
1774421755.4982228,16
1774421755.514161,14
1774421755.5407045,13
1774421755.5509763,14
1774421755.5667927,17
1774421755.5829918,24
1774421755.6006541,33
1774421755.615161,44
1774421755.632023,56
1774421755.6543522,67
1774421755.669257,76
1774421755.687556,80
1774421755.700805,81
1774421755.7240453,80
1774421755.7381048,78
1774421755.7514606,74
1774421755.7697537,70
