timestamp,bvp
1774410103.6076174,44
1774410103.6242971,41
1774410103.6409972,40
1774410103.6576023,37
1774410103.674263,34
1774410103.6909597,31
1774410103.70761,29
1774410103.7242892,27
1774410103.7409198,25
1774410103.757585,24
1774410103.7743318,22
1774410103.7909424,21
1774410103.807593,20
1774410103.8242745,19
1774410103.8409247,18
1774410103.8580546,17
1774410103.8754544,17
1774410103.8916097,19
1774410103.9077518,24
1774410103.9248574,31
1774410103.9437475,40
1774410103.959442,51
1774410103.9746017,62
1774410103.9914844,71
1774410104.0081692,76
1774410104.0246944,78
1774410104.0409188,77
1774410104.0579188,75
1774410104.0745842,71
1774410104.0913966,67
1774410104.1080694,62
1774410104.1245956,58
1774410104.1412494,55
1774410104.157838,52
1774410104.1745155,50
1774410104.19126,49
1774410104.2081878,48
1774410104.224573,49
1774410104.2412877,49
1774410104.2578242,49
1774410104.2745554,48
1774410104.2911716,47
1774410104.3081264,45
1774410104.3246548,42
1774410104.341826,40
1774410104.3581703,37
1774410104.3747854,33
1774410104.391283,28
1774410104.4082093,23
1774410104.4247632,17
1774410104.4409359,10
1774410104.4578736,3
1774410104.6749086,6
1774410104.6924114,13
1774410104.7077124,17
1774410104.725346,17
1774410104.741151,15
1774410104.757941,11
1774410104.7748888,6
1774410104.7913978,2
1774410104.8745456,3
1774410104.8921998,8
1774410104.908125,14
1774410104.9254515,19
1774410104.9414833,22
1774410104.9578304,24
1774410104.97462,25
1774410104.9914277,24
1774410105.0078835,21
1774410105.0309258,18
1774410105.0478046,15
1774410105.0637429,13
1774410105.0802953,11
1774410105.09651,9
1774410105.1129634,8
1774410105.1269736,6
1774410105.1439402,6
1774410105.1635416,5
1774410105.1797054,5
1774410105.193688,4
1774410105.2124362,4
1774410105.2325723,5
1774410105.244295,10
1774410105.2576032,18
1774410105.2808197,27
1774410105.2923596,39
1774410105.3097308,49
1774410105.3335905,59
1774410105.34719,65
1774410105.3633347,67
1774410105.3786268,67
1774410105.3959315,65
1774410105.414415,62
1774410105.4294746,59
1774410105.4471445,56
1774410105.4580874,54
1774410105.4804492,52
1774410105.4993765,51
1774410105.5132873,51
1774410105.5279536,52
1774410105.544452,53
1774410105.5575438,54
1774410105.5785441,55
1774410105.595232,56
1774410105.608168,55
1774410105.6302414,54
1774410105.6415696,52
1774410105.6602926,50
1774410105.6808014,48
1774410105.6908362,46
1774410105.7205188,44
1774410105.7300775,42
1774410105.7542436,40
1774410105.7596905,40
1774410105.7767153,39
1774410105.7932105,38
1774410105.8124928,36
1774410105.8280854,35
1774410105.8477309,34
1774410105.864165,33
1774410105.8807483,32
1774410105.8928149,33
1774410105.910614,35
1774410105.928914,41
1774410105.9431102,49
1774410105.9586582,59
1774410105.9769738,70
1774410105.9928315,80
1774410106.0081964,87
1774410106.024998,90
1774410106.0447152,90
1774410106.0575895,88
1774410106.075105,83
1774410106.0909128,78
1774410106.1141639,74
1774410106.127423,69
1774410106.1430218,66
1774410106.164171,63
1774410106.1793404,61
1774410106.1967065,60
1774410106.2092345,59
1774410106.2244303,59
1774410106.2478921,60
1774410106.2649539,60
1774410106.2799375,59
1774410106.2956219,58
1774410106.3085685,55
1774410106.325943,53
1774410106.3449297,50
1774410106.3608987,47
1774410106.3761022,43
1774410106.3914669,40
1774410106.408782,39
1774410106.4263182,36
1774410106.4480915,33
1774410106.4580386,31
1774410106.4771812,30
1774410106.5020602,28
1774410106.5105498,27
1774410106.5315812,25
1774410106.5410469,24
1774410106.5648658,23
1774410106.5780702,22
1774410106.5968819,21
1774410106.6095486,22
1774410106.6300519,27
1774410106.6466665,34
1774410106.65783,42
1774410106.6780453,53
1774410106.6938424,63
1774410106.7092562,71
1774410106.7253065,76
1774410106.7412395,77
1774410106.7575216,75
1774410106.776033,71
1774410106.7920947,66
1774410106.8149595,61
1774410106.8251743,57
1774410106.8480773,53
1774410106.859206,50
1774410106.8763735,48
1774410106.893102,46
1774410106.9143133,46
1774410106.9263818,46
1774410106.9473567,46
1774410106.9634614,47
1774410106.9807768,47
1774410106.9943907,46
1774410107.0106757,45
1774410107.0263693,43
1774410107.0466917,40
1774410107.0633104,38
1774410107.0793777,35
1774410107.1013846,32
1774410107.116225,30
1774410107.1350772,28
1774410107.1475518,25
1774410107.1643803,23
1774410107.180676,22
1774410107.1947005,20
1774410107.2115765,19
1774410107.2264552,18
1774410107.2472553,17
1774410107.2581265,16
1774410107.2754593,15
1774410107.2907405,14
1774410107.308978,13
1774410107.3287785,12
1774410107.3420753,12
1774410107.3640814,12
1774410107.3810527,15
1774410107.3942714,21
1774410107.4142995,30
1774410107.4242325,40
1774410107.4467278,51
1774410107.4640222,60
1774410107.4803112,67
1774410107.4966848,70
1774410107.5143552,70
1774410107.5285463,66
1774410107.5463047,62
1774410107.5606167,57
1774410107.581878,53
1774410107.592465,48
1774410107.6139956,44
1774410107.6260219,42
1774410107.6472676,40
1774410107.6574337,40
1774410107.686123,40
1774410107.6932092,40
1774410107.7137494,40
1774410107.7268176,41
1774410107.7476912,40
1774410107.7586794,40
1774410107.7745888,39
1774410107.7912312,37
1774410107.8086877,34
1774410107.8250778,32
1774410107.846372,29
1774410107.8650148,26
1774410107.8804836,24
1774410107.8934817,21
1774410107.911159,20
1774410107.925147,18
1774410107.9456367,17
1774410107.9606388,15
1774410107.980769,14
1774410107.9927201,13
1774410108.0132813,12
1774410108.0248141,12
1774410108.044394,11
1774410108.0633595,10
1774410108.0779846,9
1774410108.0940988,9
1774410108.1138933,10
1774410108.1261353,13
1774410108.1473138,19
1774410108.1581497,28
1774410108.1809978,38
1774410108.1981738,48
1774410108.2085752,57
1774410108.230001,63
1774410108.2479546,65
1774410108.2633348,64
1774410108.280055,60
1774410108.2970126,55
1774410108.3083253,50
1774410108.3289354,45
1774410108.3476174,41
1774410108.3584754,38
1774410108.3813043,36
1774410108.3931758,35
1774410108.412703,35
1774410108.428449,35
1774410108.4460368,36
1774410108.4610379,38
1774410108.4748616,39
1774410108.4906654,39
1774410108.507938,38
1774410108.5241163,36
1774410108.541261,34
1774410108.5573182,31
1774410108.58,28
1774410108.6044638,25
1774410108.6139452,23
1774410108.6301577,21
1774410108.6468186,19
1774410108.6645968,17
1774410108.67741,16
1774410108.6964724,15
1774410108.7144587,14
1774410108.7254522,13
1774410108.7484562,13
1774410108.7576778,12
1774410108.774536,12
1774410108.7963867,11
1774410108.812433,11
1774410108.8268905,11
1774410108.847508,14
1774410108.8573208,20
1774410108.8757644,28
1774410108.898105,38
1774410108.910139,47
1774410108.9269083,57
1774410108.9473948,63
1774410108.9596622,65
1774410108.9873533,65
1774410108.998801,61
1774410109.0122743,56
1774410109.0304158,51
1774410109.0466802,45
1774410109.0644593,40
1774410109.0807533,37
1774410109.0925617,35
1774410109.1140294,33
1774410109.1288228,33
1774410109.145563,33
1774410109.1603465,35
1774410109.1789293,36
1774410109.1950986,37
1774410109.2108166,38
1774410109.224537,37
1774410109.242437,36
1774410109.2573242,34
1774410109.2792003,32
1774410109.2906194,29
1774410109.3155758,27
1774410109.328929,24
1774410109.3473525,22
1774410109.3611445,20
1774410109.3804638,19
1774410109.3966928,17
1774410109.4124331,16
1774410109.42751,15
1774410109.4466677,14
1774410109.45971,14
1774410109.4796526,13
1774410109.4964461,12
1774410109.513154,12
1774410109.5289948,11
1774410109.5450208,12
1774410109.5610418,14
1774410109.578725,19
1774410109.5929196,28
1774410109.6098516,38
1774410109.6251495,48
1774410109.643459,59
1774410109.6572855,68
1774410109.6757028,72
1774410109.6966727,73
1774410109.7075744,70
1774410109.7314925,66
1774410109.7456875,60
1774410109.7574615,55
1774410109.7749515,50
1774410109.7966216,46
1774410109.808268,43
1774410109.8300552,40
1774410109.8474371,40
1774410109.8632548,40
1774410109.8799171,40
1774410109.8964155,41
1774410109.9078054,42
1774410109.929016,42
1774410109.9448898,42
1774410109.9608767,41
1774410109.976827,40
1774410109.9931326,38
1774410110.008701,35
1774410110.0249698,33
1774410110.041771,30
1774410110.0572326,28
1774410110.0799828,26
1774410110.0923946,24
1774410110.114027,22
1774410110.125846,21
1774410110.143972,20
1774410110.1605194,19
1774410110.176515,18
1774410110.1949034,17
1774410110.2102058,17
1774410110.229974,16
1774410110.2465682,16
1774410110.2628596,15
1774410110.2786045,15
1774410110.2935019,15
1774410110.3108952,19
1774410110.3242521,26
1774410110.3432775,35
1774410110.3589962,45
1774410110.3745492,56
1774410110.3938158,66
1774410110.4171572,72
1774410110.4276187,75
1774410110.4478822,74
1774410110.4600754,70
1774410110.478407,65
1774410110.4905622,59
1774410110.510291,54
1774410110.5319562,49
1774410110.5412567,45
1774410110.5607343,43
1774410110.5800402,41
1774410110.600274,41
1774410110.6083815,42
1774410110.629985,43
1774410110.6460173,44
1774410110.6620517,45
1774410110.6799824,46
1774410110.6959405,45
1774410110.7100384,44
1774410110.728767,41
1774410110.7426083,40
1774410110.7580864,37
1774410110.7742786,34
1774410110.792332,32
1774410110.8131485,30
1774410110.8284595,28
1774410110.8476028,26
1774410110.862882,25
1774410110.8755677,23
1774410110.8966503,22
1774410110.9116306,21
1774410110.9302313,21
1774410110.946719,20
1774410110.957828,20
1774410110.980011,19
1774410110.9913251,18
1774410111.014194,17
1774410111.0284467,17
1774410111.0466514,16
1774410111.0605648,18
1774410111.076676,23
1774410111.0966105,31
1774410111.1085267,40
1774410111.1252244,51
1774410111.1406488,62
1774410111.160655,71
1774410111.1810775,76
1774410111.1958463,77
1774410111.217471,75
1774410111.2249959,70
1774410111.2475042,65
1774410111.2576118,59
1774410111.2816684,53
1774410111.2981372,49
1774410111.3147912,46
1774410111.331666,43
1774410111.3412347,43
1774410111.3631027,43
1774410111.3794682,44
1774410111.397315,45
1774410111.4096763,47
1774410111.4306927,47
1774410111.4439738,47
1774410111.4619033,46
1774410111.4751122,45
1774410111.4932818,42
1774410111.5074322,40
1774410111.5277212,38
1774410111.5475607,35
1774410111.5611036,33
1774410111.5777242,30
1774410111.5926178,28
1774410111.6140418,27
1774410111.6258006,25
1774410111.6432996,24
1774410111.65716,23
1774410111.6801643,22
1774410111.6965628,21
1774410111.71333,21
1774410111.7299576,20
1774410111.7465081,19
1774410111.7609684,19
1774410111.7764227,18
1774410111.792217,18
1774410111.81075,20
1774410111.8286724,24
1774410111.842859,32
1774410111.8585808,40
1774410111.8807883,51
1774410111.8906813,62
1774410111.915152,70
1774410111.928606,74
1774410111.9466944,74
1774410111.9609494,72
1774410111.980605,67
1774410111.9924202,61
1774410112.0075445,55
1774410112.024457,50
1774410112.047687,45
1774410112.0571601,42
1774410112.07522,40
1774410112.091817,40
1774410112.1099102,40
1774410112.1275775,42
1774410112.1431131,44
1774410112.160148,45
1774410112.1761613,46
1774410112.1952596,46
1774410112.213348,45
1774410112.2243495,43
1774410112.241295,41
1774410112.2640054,39
1774410112.277206,36
1774410112.2975264,33
1774410112.3103354,31
1774410112.3290145,29
1774410112.3479826,27
1774410112.3619654,25
1774410112.3843293,24
1774410112.3938649,23
1774410112.4116626,22
1774410112.4264596,22
1774410112.4477994,21
1774410112.4641814,21
1774410112.4799564,20
1774410112.4965944,20
1774410112.5123034,19
1774410112.5309093,19
1774410112.5536776,20
1774410112.5605323,24
1774410112.577451,31
1774410112.592409,40
1774410112.609,49
1774410112.6309648,60
1774410112.653153,68
1774410112.659223,73
1774410112.6786227,74
1774410112.6962464,72
1774410112.7140322,68
1774410112.7301145,62
1774410112.7526479,56
1774410112.7584267,51
1774410112.776699,46
1774410112.792369,43
1774410112.811041,41
1774410112.830112,40
1774410112.8406315,41
1774410112.863307,42
1774410112.873785,45
1774410112.8963594,46
1774410112.9133663,47
1774410112.9268825,48
1774410112.9450207,47
1774410112.959695,45
1774410112.9807649,43
1774410112.9932578,40
1774410113.0112824,38
1774410113.0306008,35
1774410113.046635,33
1774410113.0585146,32
1774410113.0801356,31
1774410113.0915265,30
1774410113.1147065,29
1774410113.1285179,28
1774410113.1501338,28
1774410113.1660924,27
1774410113.1750672,26
1774410113.192576,25
1774410113.2130635,25
1774410113.2259862,24
1774410113.2436185,24
1774410113.259196,23
1774410113.273822,25
1774410113.2927954,29
1774410113.310298,36
1774410113.3251042,45
1774410113.3466291,56
1774410113.3618567,66
1774410113.381462,74
1774410113.3962455,79
1774410113.412451,80
1774410113.425663,78
1774410113.4466617,74
1774410113.4580402,68
1774410113.4800239,63
1774410113.4962378,57
1774410113.507422,53
1774410113.5308616,50
1774410113.5470679,48
1774410113.562727,47
1774410113.5786607,48
1774410113.596825,50
1774410113.6096733,52
1774410113.625504,53
1774410113.6409314,54
1774410113.6590488,54
1774410113.674464,53
1774410113.6972072,51
1774410113.7070787,48
1774410113.73423,45
1774410113.7470486,42
1774410113.7586713,40
1774410113.7757814,38
1774410113.7965703,36
1774410113.8084302,34
1774410113.833232,33
1774410113.8416476,32
1774410113.8633375,31
1774410113.88128,30
1774410113.8946328,30
1774410113.9133193,29
1774410113.9292028,29
1774410113.9474657,28
1774410113.9629586,27
1774410113.9769418,27
1774410113.9972262,28
1774410114.008431,32
1774410114.0254028,39
1774410114.0404618,47
1774410114.0642145,57
1774410114.0737064,68
1774410114.0962532,76
1774410114.1070797,82
1774410114.1371682,83
1774410114.146656,81
1774410114.1682947,77
1774410114.1800008,72
1774410114.1981268,67
1774410114.2163315,62
1774410114.2293777,58
1774410114.2459018,55
1774410114.2639463,53
1774410114.2811716,52
1774410114.2964385,53
1774410114.3110423,54
1774410114.3291316,56
1774410114.345255,57
1774410114.3663921,58
1774410114.3759336,57
1774410114.3966856,56
1774410114.4074373,54
1774410114.430526,51
1774410114.4415658,48
1774410114.4638891,45
1774410114.4771886,43
1774410114.4972897,40
1774410114.5134223,39
1774410114.5306342,37
1774410114.5448365,36
1774410114.563997,34
1774410114.5800836,33
1774410114.595702,33
1774410114.611427,32
1774410114.628721,31
1774410114.6474693,30
1774410114.663739,30
1774410114.679797,29
1774410114.6950388,29
1774410114.7121632,31
1774410114.7277596,35
1774410114.7472558,42
1774410114.7597785,51
1774410114.7761211,62
1774410114.7918432,71
1774410114.8124654,79
1774410114.8276587,82
1774410114.8405306,82
1774410114.8617752,79
1774410114.8737051,75
1774410114.897586,70
1774410114.9079266,64
1774410114.9238803,60
1774410114.9456878,56
1774410114.970504,54
1774410114.9796772,53
1774410114.9951525,53
1774410115.0132542,54
1774410115.029234,56
1774410115.0452302,57
1774410115.061795,58
1774410115.0774357,59
1774410115.0953948,58
1774410115.111936,56
1774410115.1275792,53
1774410115.1407008,50
1774410115.1581404,48
1774410115.1754284,45
1774410115.190343,42
1774410115.2085955,40
1774410115.2306025,39
1774410115.2430642,37
1774410115.2624588,36
1774410115.2743762,35
1774410115.299802,34
1774410115.3123255,33
1774410115.3308637,33
1774410115.344358,32
1774410115.3640192,31
1774410115.380743,30
1774410115.3939333,31
1774410115.40847,34
1774410115.4300923,40
1774410115.443007,48
1774410115.459146,58
1774410115.4742012,69
1774410115.4913638,78
1774410115.5124352,84
1774410115.528253,86
1774410115.5474524,86
1774410115.5650563,82
1774410115.5763905,77
1774410115.5972633,72
1774410115.6085005,67
1774410115.6261253,63
1774410115.640814,60
1774410115.6612093,57
1774410115.6758797,56
1774410115.6973088,57
1774410115.7080696,58
1774410115.7261186,59
1774410115.7422104,61
1774410115.7623012,61
1774410115.7770066,61
1774410115.7930226,60
1774410115.8117995,58
1774410115.8299541,55
1774410115.8438952,51
1774410115.8640652,48
1774410115.8780093,45
1774410115.8908875,42
1774410115.909768,40
1774410115.9291823,39
1774410115.949212,37
1774410115.9611392,36
1774410115.9755971,35
1774410115.9982965,34
1774410116.0114763,33
1774410116.029979,32
1774410116.040868,32
1774410116.0639172,31
1774410116.0740805,30
1774410116.0964205,29
1774410116.1093946,30
1774410116.1293294,33
1774410116.1466527,39
1774410116.1632967,47
1774410116.1778378,58
1774410116.1924982,70
1774410116.2082677,81
1774410116.2242577,89
1774410116.2404675,93
1774410116.267265,93
1774410116.285464,90
1774410116.297444,85
1774410116.3124833,81
1774410116.3309355,76
1774410116.3445127,72
1774410116.364622,69
1774410116.3788052,67
1774410116.3966892,65
1774410116.4086967,65
1774410116.430576,65
1774410116.4413602,65
1774410116.46335,65
1774410116.473973,66
1774410116.4959424,65
1774410116.511801,64
1774410116.5277991,61
1774410116.5402606,59
1774410116.5598423,55
1774410116.5758593,52
1774410116.591872,49
1774410116.6121511,46
1774410116.6301258,43
1774410116.6466715,41
1774410116.6597567,40
1774410116.679894,38
1774410116.6967232,36
1774410116.7124982,35
1774410116.7310326,34
1774410116.7418985,33
1774410116.759107,32
1774410116.7759871,31
1774410116.7989047,30
1774410116.809624,29
1774410116.825978,28
1774410116.8405726,27
1774410116.8628023,26
1774410116.8788614,27
1774410116.8948934,31
1774410116.9110625,38
1774410116.9278326,47
1774410116.9447682,59
1774410116.9639614,72
1774410116.9752212,82
1774410116.9909446,90
1774410117.0121195,93
1774410117.023736,93
1774410117.0402946,90
1774410117.070202,86
1774410117.0807974,82
1774410117.0974898,77
1774410117.1095116,74
1774410117.1300092,71
1774410117.1447756,68
1774410117.1633594,67
1774410117.1771874,66
1774410117.1923356,65
1774410117.208061,65
1774410117.2310708,65
1774410117.2403822,65
1774410117.2629192,64
1774410117.2768831,62
1774410117.297215,60
1774410117.3111281,57
1774410117.330639,54
1774410117.3474314,51
1774410117.3576303,47
1774410117.377521,44
1774410117.3902476,41
1774410117.4095852,39
1774410117.4299958,37
1774410117.4405265,35
1774410117.4619274,33
1774410117.4804516,32
1774410117.4945557,31
1774410117.507562,30
1774410117.5270686,29
1774410117.5447314,28
1774410117.5639162,27
1774410117.5773175,26
1774410117.5961163,25
1774410117.6100142,23
1774410117.6251996,22
1774410117.6441019,22
1774410117.6639254,25
1774410117.6735156,31
1774410117.692286,40
1774410117.707345,51
1774410117.7270575,64
1774410117.744947,76
1774410117.7572944,85
1774410117.7768369,90
1774410117.7941594,90
1774410117.8101158,88
1774410117.8299458,84
1774410117.8436265,79
1774410117.8622682,74
1774410117.8798027,70
1774410117.8974156,67
1774410117.9095964,64
1774410117.9305325,62
1774410117.9447975,61
1774410117.9633553,60
1774410117.9755502,60
1774410117.9964077,61
1774410118.0082717,61
1774410118.028076,61
1774410118.040462,59
1774410118.06184,57
1774410118.0735388,54
1774410118.0969918,51
1774410118.1082692,47
1774410118.1241772,43
1774410118.141544,40
1774410118.1633964,38
1774410118.1806605,36
1774410118.1966953,33
1774410118.2105544,31
1774410118.2296548,30
1774410118.2441106,28
1774410118.263311,27
1774410118.2749846,26
1774410118.2959423,25
1774410118.3078601,24
1774410118.3306577,23
1774410118.3446424,22
1774410118.35809,21
1774410118.3763015,19
1774410118.3921287,18
1774410118.4097257,17
1774410118.4302552,19
1774410118.4410744,23
1774410118.460625,31
1774410118.475215,41
1774410118.4923944,54
1774410118.5087378,66
1774410118.524386,76
1774410118.5476909,83
1774410118.5633974,85
1774410118.5828817,84
1774410118.5915775,80
1774410118.6079113,75
1774410118.6313076,69
1774410118.6504931,64
1774410118.6637301,60
1774410118.680678,57
1774410118.693675,55
1774410118.712149,53
1774410118.7287626,53
1774410118.742979,53
1774410118.7607703,54
1774410118.7743554,55
1774410118.7920196,55
1774410118.809006,55
1774410118.8261886,53
1774410118.840394,50
1774410118.858667,47
1774410118.8734927,43
1774410118.8986764,40
1774410118.9167676,37
1774410118.9300156,34
1774410118.9472759,32
1774410118.96409,29
1774410118.977021,27
1774410118.9991012,25
1774410119.0072675,24
1774410119.0276854,23
1774410119.0484939,22
1774410119.064783,21
1774410119.0793996,21
1774410119.095781,20
1774410119.1119266,19
1774410119.1266792,17
1774410119.14379,16
1774410119.1633165,17
1774410119.1757295,19
1774410119.1909409,26
1774410119.2073023,36
1774410119.2305963,46
1774410119.241403,58
1774410119.2568333,69
1774410119.2738447,77
1774410119.2934036,81
1774410119.3092093,80
1774410119.3264859,77
1774410119.3435512,72
1774410119.3585706,66
1774410119.3753474,61
1774410119.3972096,56
1774410119.4122043,52
1774410119.4262664,49
1774410119.4459963,47
1774410119.4610522,46
1774410119.4737077,46
1774410119.4935474,47
1774410119.511467,48
1774410119.529802,49
1774410119.540993,49
1774410119.558683,48
1774410119.5766406,46
1774410119.5974033,43
1774410119.6084332,40
1774410119.6305203,38
1774410119.6404016,34
1774410119.6598983,31
1774410119.67803,28
1774410119.6974158,26
1774410119.709088,23
1774410119.7315142,21
1774410119.7465763,20
1774410119.758219,19
1774410119.775297,18
1774410119.7938993,17
1774410119.8088012,16
1774410119.8282208,15
1774410119.8441844,14
1774410119.858233,14
1774410119.8801987,13
1774410119.8927457,12
1774410119.9082153,11
1774410119.9282887,12
1774410119.946667,17
1774410119.9635797,25
1774410119.9764824,37
1774410119.997223,49
1774410120.007367,63
1774410120.0270069,74
1774410120.0454686,82
1774410120.0566905,84
1774410120.0833228,83
1774410120.090057,79
1774410120.1109807,74
1774410120.1308672,68
1774410120.1468067,63
1774410120.1629941,58
1774410120.17665,55
1774410120.1977005,52
1774410120.2108495,50
1774410120.2268934,49
1774410120.240993,49
1774410120.25709,50
1774410120.2809217,50
1774410120.298152,50
1774410120.3105946,50
1774410120.3306909,49
1774410120.3412871,47
1774410120.3633313,44
1774410120.3762102,40
1774410120.3972526,38
1774410120.4132836,34
1774410120.4245093,31
1774410120.44728,28
1774410120.4566576,25
1774410120.4784,23
1774410120.4901052,21
1774410120.5120573,19
1774410120.5281045,18
1774410120.5480998,17
1774410120.556775,16
1774410120.578231,15
1774410120.5920792,14
1774410120.6170232,13
1774410120.627167,12
1774410120.6425874,11
1774410120.6660836,10
1774410120.679898,10
1774410120.6967204,11
1774410120.7133005,16
1774410120.7309778,24
1774410120.7457528,36
1774410120.7567496,48
1774410120.7759123,62
1774410120.7970285,74
1774410120.815072,81
1774410120.824811,85
1774410120.8472164,84
1774410120.8571682,80
1774410120.8791087,74
1774410120.893037,68
1774410120.9147372,62
1774410120.931075,56
1774410120.9474835,52
1774410120.9603305,49
1774410120.9750533,47
1774410120.990228,46
1774410121.0118878,46
1774410121.0282376,47
1774410121.0423954,48
1774410121.0597663,49
1774410121.0762718,48
1774410121.0933087,47
1774410121.1088583,45
1774410121.1256905,43
1774410121.14792,40
1774410121.1636033,37
1774410121.1797695,33
1774410121.1947467,30
1774410121.2107234,27
1774410121.225106,24
1774410121.244907,22
1774410121.256635,20
1774410121.2779622,18
1774410121.292069,17
1774410121.3140109,15
1774410121.3232803,15
1774410121.340798,14
1774410121.356622,13
1774410121.3775449,12
1774410121.3981633,11
1774410121.419102,11
1774410121.43001,9
1774410121.4500644,9
1774410121.4647279,10
1774410121.4764822,15
1774410121.4966521,23
1774410121.5125384,35
1774410121.5300047,48
1774410121.5467448,61
1774410121.5603137,73
1774410121.5792942,80
1774410121.5954149,83
1774410121.6132789,82
1774410121.628158,77
1774410121.6432257,71
1774410121.6566093,65
1774410121.6753275,59
1774410121.6971345,54
1774410121.707291,49
1774410121.728551,46
1774410121.7475827,45
1774410121.7570982,44
1774410121.7768486,45
1774410121.8014817,46
1774410121.810549,48
1774410121.829917,49
1774410121.847241,49
1774410121.8641043,48
1774410121.8784518,46
1774410121.8967323,44
1774410121.9071872,40
1774410121.9302323,38
1774410121.946171,35
1774410121.9597132,31
1774410121.9739606,28
1774410121.9934745,26
1774410122.0094543,23
1774410122.0254245,22
1774410122.0415258,20
1774410122.0574448,19
1774410122.0740976,18
1774410122.0899858,17
1774410122.106913,16
1774410122.1293173,16
1774410122.1451807,15
1774410122.1633906,14
1774410122.175009,15
1774410122.1966567,19
1774410122.2141473,26
1774410122.230763,36
1774410122.2453132,48
1774410122.264124,60
1774410122.2766917,71
1774410122.291617,79
1774410122.3134165,81
1774410122.3284585,80
1774410122.3436399,76
1774410122.36402,70
1774410122.3775206,64
1774410122.3925452,57
1774410122.4094617,51
1774410122.427252,47
1774410122.4458013,43
1774410122.4566288,41
1774410122.4777508,41
1774410122.4902017,42
1774410122.512818,44
1774410122.5299375,46
1774410122.5466497,47
1774410122.5575829,48
1774410122.5810785,47
1774410122.5965817,46
1774410122.6140087,43
1774410122.6294594,40
1774410122.6473024,37
1774410122.6632879,33
1774410122.675772,30
1774410122.6958606,27
1774410122.711829,25
1774410122.727425,22
1774410122.7434683,21
1774410122.7584028,19
1774410122.773821,18
1774410122.7905269,18
1774410122.810411,17
1774410122.8236275,16
1774410122.8468583,15
1774410122.8566506,15
1774410122.8806572,16
1774410122.8914316,19
1774410122.9087627,26
1774410122.9245207,36
1774410122.9473677,48
1774410122.963329,62
1774410122.9806194,75
1774410122.998052,84
1774410123.0186167,89
1774410123.0237055,89
1774410123.0454571,86
1774410123.063223,81
1774410123.0799134,74
1774410123.0972638,68
1774410123.1106012,61
1774410123.1270757,56
1774410123.1431677,52
1774410123.1587162,50
1774410123.1772456,49
1774410123.192543,49
1774410123.2065907,51
1774410123.2245436,52
1774410123.2475379,54
1774410123.259295,54
1774410123.280923,54
1774410123.2914016,52
1774410123.3101442,50
1774410123.3300183,46
1774410123.342056,43
1774410123.3633308,40
1774410123.3780787,36
1774410123.3925571,33
1774410123.412795,30
1774410123.4251502,28
1774410123.444764,26
1774410123.4618933,24
1774410123.4761992,23
1774410123.4927967,22
1774410123.5082757,21
1774410123.530331,20
1774410123.5458724,20
1774410123.5603201,19
1774410123.580936,18
1774410123.5939512,18
1774410123.610691,22
1774410123.6248367,29
1774410123.6471648,39
1774410123.6567051,51
1774410123.6746066,66
1774410123.69113,79
1774410123.7152295,89
1774410123.7319698,95
1774410123.7475398,95
1774410123.7632425,92
1774410123.774009,87
1774410123.7946198,81
1774410123.8112242,75
1774410123.8272028,69
1774410123.8432205,64
1774410123.8591926,60
1774410123.874649,58
1774410123.891474,56
1774410123.9067562,56
1774410123.9282105,57
1774410123.94124,58
1774410123.9577768,59
1774410123.9799302,59
1774410123.9922125,59
1774410124.010952,57
1774410124.025539,54
1774410124.0472631,51
1774410124.0570939,47
1774410124.0806084,43
1774410124.0909278,40
1774410124.1135669,37
1774410124.1300323,33
1774410124.1471283,31
1774410124.1616862,29
1774410124.1792798,27
1774410124.1949637,25
1774410124.210153,24
1774410124.226243,23
1774410124.2465873,22
1774410124.2621303,22
1774410124.2791247,20
1774410124.294728,20
1774410124.3074565,21
1774410124.3303998,23
1774410124.3479898,30
1774410124.3603206,40
1774410124.3808885,52
1774410124.3924274,66
1774410124.4135382,78
1774410124.424683,88
1774410124.446077,94
1774410124.4565594,95
1774410124.4860091,92
1774410124.4906466,87
1774410124.514144,80
1774410124.528466,74
1774410124.5419567,68
1774410124.5621092,63
1774410124.5740755,59
1774410124.5921087,57
1774410124.6101913,56
1774410124.6260955,56
1774410124.64239,57
1774410124.658369,58
1774410124.6768048,59
1774410124.691989,60
1774410124.7137764,59
1774410124.7310562,57
1774410124.7466705,53
1774410124.7604458,50
1774410124.7734702,46
1774410124.7902696,41
1774410124.8085268,39
1774410124.8295956,35
1774410124.8460796,32
1774410124.8616247,30
1774410124.8793464,28
1774410124.8915105,26
1774410124.909198,25
1774410124.923946,24
1774410124.9408915,23
1774410124.962196,22
1774410124.9804392,21
1774410124.9965365,20
1774410125.0150049,20
1774410125.030942,22
1774410125.044089,26
1774410125.0646865,34
1774410125.0800052,44
1774410125.0965831,57
1774410125.106889,70
1774410125.1254275,81
1774410125.1458986,89
1774410125.1627107,91
1774410125.1782503,89
1774410125.194038,85
1774410125.2110422,79
1774410125.2234523,73
1774410125.246219,66
1774410125.2608194,61
1774410125.2768152,57
1774410125.2910988,54
1774410125.310451,53
1774410125.323824,53
1774410125.3442037,54
1774410125.35953,56
1774410125.3815925,57
1774410125.3966458,58
1774410125.4129238,58
1774410125.430618,56
1774410125.4434178,54
1774410125.4596736,50
1774410125.4746423,46
1774410125.4923153,42
1774410125.5092547,39
1774410125.5286326,36
1774410125.547218,33
1774410125.5621006,30
1774410125.5798714,28
1774410125.5941527,27
1774410125.6113613,26
1774410125.6247766,25
1774410125.6441739,24
1774410125.657378,23
1774410125.675305,22
1774410125.6904166,22
1774410125.713519,25
1774410125.7231133,31
1774410125.7440405,40
1774410125.7633464,51
1774410125.7754493,64
1774410125.7908282,76
1774410125.8072267,86
1774410125.8302588,91
1774410125.8470302,92
1774410125.8633409,89
1774410125.8797643,84
1774410125.8944414,77
1774410125.9113436,71
1774410125.929837,64
1774410125.9421573,59
1774410125.9567993,56
1774410125.9800344,53
1774410125.9937298,52
1774410126.009789,53
1774410126.0260565,54
1774410126.0478213,56
1774410126.0565135,57
1774410126.0742488,57
1774410126.0966556,56
1774410126.1120691,54
1774410126.1325161,51
1774410126.1397336,47
1774410126.1597846,43
1774410126.1813402,40
1774410126.19761,36
1774410126.215265,33
1774410126.2309175,30
1774410126.2466264,28
1774410126.2633283,26
1774410126.2802393,25
1774410126.2949538,24
1774410126.311382,23
1774410126.325938,22
1774410126.3445833,21
1774410126.3608358,20
1774410126.3772538,19
1774410126.3926284,18
1774410126.4084964,18
1774410126.424607,21
1774410126.4429379,28
1774410126.456619,38
1774410126.4829328,50
1774410126.491422,65
1774410126.5133753,79
1774410126.5284343,90
1774410126.5481365,97
1774410126.5632696,98
1774410126.5805016,96
1774410126.590168,91
1774410126.6113596,85
1774410126.628851,79
1774410126.647392,73
1774410126.6618574,68
1774410126.6800628,64
1774410126.6970978,62
1774410126.7113862,61
1774410126.7273252,60
1774410126.7433143,61
1774410126.7582994,62
1774410126.775978,62
1774410126.7906327,62
1774410126.8085837,60
1774410126.8235078,58
1774410126.843299,54
1774410126.863288,51
1774410126.876892,46
1774410126.8976657,42
1774410126.9118626,39
1774410126.9298966,36
1774410126.9474084,33
1774410126.963248,30
1774410126.9800622,28
1774410126.9972568,26
1774410127.0134566,24
1774410127.0299819,23
1774410127.0466678,22
1774410127.0628743,21
1774410127.0764508,20
1774410127.0941308,19
1774410127.111246,18
1774410127.128595,17
1774410127.1429434,18
1774410127.1588895,21
1774410127.1751575,29
1774410127.1919894,40
1774410127.2069728,53
1774410127.2246451,68
1774410127.247333,81
1774410127.2640045,91
1774410127.2729707,96
1774410127.2976274,96
1774410127.306432,92
1774410127.3275275,87
1774410127.347195,81
1774410127.3599386,74
1774410127.3754542,69
1774410127.3976784,64
1774410127.4148543,61
1774410127.4306831,59
1774410127.4466636,58
1774410127.4628267,58
1774410127.4769998,58
1774410127.4949212,59
1774410127.5110013,58
1774410127.527025,58
1774410127.5439372,56
1774410127.5566437,53
1774410127.5806193,50
1774410127.5997143,46
1774410127.6115823,42
1774410127.62947,39
1774410127.6445653,35
1774410127.6634934,32
1774410127.6751537,29
1774410127.6975498,26
1774410127.7086442,24
1774410127.7305613,23
1774410127.7416694,21
1774410127.763687,20
1774410127.7743762,19
1774410127.7959802,18
1774410127.8104897,17
1774410127.826495,17
1774410127.8466558,16
1774410127.8625412,15
1774410127.8786116,13
1774410127.8945098,12
1774410127.9143214,11
1774410127.9265523,12
1774410127.942551,16
1774410127.9580748,25
1774410127.974393,37
1774410127.9900804,51
1774410128.0084627,67
1774410128.0231807,81
1774410128.0409226,91
1774410128.0639951,95
1774410128.073225,95
1774410128.093191,91
1774410128.113302,85
1774410128.1278799,78
1774410128.1416736,71
1774410128.1632555,65
1774410128.1799476,61
1774410128.1974955,58
1774410128.2116165,56
1774410128.229343,55
1774410128.244828,56
1774410128.2595208,57
1774410128.2773778,58
1774410128.2909513,58
1774410128.3109004,58
1774410128.3253806,56
1774410128.341822,53
1774410128.36053,50
1774410128.3736138,46
1774410128.3918295,41
1774410128.4095793,38
1774410128.4314334,34
1774410128.440832,31
1774410128.462431,28
1774410128.4729764,26
1774410128.4956083,24
1774410128.5102375,22
1774410128.5333066,21
1774410128.5466356,20
1774410128.5594318,20
1774410128.579949,19
1774410128.592195,18
1774410128.6124983,17
1774410128.6284702,16
1774410128.6456296,15
1774410128.6604836,15
1774410128.6807349,17
1774410128.69215,23
1774410128.7082183,32
1774410128.724593,44
1774410128.7407122,58
1774410128.7570086,71
1774410128.7734327,82
1774410128.7910776,88
1774410128.8074355,89
1774410128.8291457,87
1774410128.8464744,81
1774410128.865007,75
1774410128.8780403,68
1774410128.8976526,61
1774410128.913496,55
1774410128.93253,51
1774410128.9455104,48
1774410128.9632874,47
1774410128.981671,48
1774410128.9973211,49
1774410129.0124927,51
1774410129.030595,52
1774410129.0449226,52
1774410129.0641851,51
1774410129.0771658,49
1774410129.0966005,46
1774410129.1140785,42
1774410129.1230488,39
1774410129.1467488,35
1774410129.1567976,31
1774410129.1787374,27
1774410129.1956236,24
1774410129.208418,22
1774410129.2328598,20
1774410129.2408686,18
1774410129.263305,17
1774410129.272842,16
1774410129.2921052,15
1774410129.3062017,15
1774410129.3308854,14
1774410129.3395548,14
1774410129.3612099,13
1774410129.3762445,12
1774410129.3947945,11
1774410129.4067352,12
1774410129.426383,18
1774410129.4474344,27
1774410129.4639063,39
1774410129.474441,54
1774410129.4960766,69
1774410129.512749,83
1774410129.5270615,92
1774410129.5445507,96
1774410129.5641828,95
1774410129.5786142,91
1774410129.5958004,85
1774410129.6073847,78
1774410129.626481,71
1774410129.6406624,65
1774410129.664335,61
1774410129.6738489,57
1774410129.6979902,55
1774410129.7074606,54
1774410129.729894,55
1774410129.7459893,55
1774410129.760615,56
1774410129.777654,57
1774410129.7916903,56
1774410129.8112206,55
1774410129.8306556,52
1774410129.8436754,48
1774410129.8579087,44
1774410129.8759124,40
1774410129.8910143,36
1774410129.9087887,32
1774410129.924015,29
1774410129.9444835,26
1774410129.9608543,23
1774410129.977786,21
1774410129.9918318,19
1774410130.0130568,18
1774410130.0286312,17
1774410130.0403566,16
1774410130.06426,16
1774410130.0753012,15
1774410130.094349,14
1774410130.1122546,13
1774410130.1265419,12
1774410130.146705,11
1774410130.1567366,13
1774410130.1774716,18
1774410130.1921315,27
1774410130.213017,40
1774410130.226709,54
1774410130.242549,70
1774410130.2627885,84
1774410130.2750847,93
1774410130.2965817,98
1774410130.312493,97
1774410130.3305483,93
1774410130.3450859,87
1774410130.364395,81
1774410130.3764775,74
1774410130.3972874,69
1774410130.4085956,64
1774410130.43083,61
1774410130.4403718,58
1774410130.4610665,57
1774410130.4727688,57
1774410130.493834,57
1774410130.5098705,57
1774410130.5259287,57
1774410130.5482314,56
1774410130.5578892,54
1774410130.5739334,51
1774410130.5955362,48
1774410130.613317,43
1774410130.630573,40
1774410130.6432128,35
1774410130.6678047,31
1774410130.6748,27
1774410130.6966062,24
1774410130.7127347,21
1774410130.729987,19
1774410130.7446022,17
1774410130.7643464,15
1774410130.7740982,14
1774410130.790746,13
1774410130.8090189,12
1774410130.8298976,11
1774410130.840449,10
1774410130.8601131,9
1774410130.8735564,8
1774410130.8965747,7
1774410130.9081461,7
1774410130.924491,8
1774410130.93974,14
1774410130.9563596,23
1774410130.9800065,36
1774410130.997301,50
1774410131.014924,64
1774410131.0299246,77
1774410131.0502853,85
1774410131.0570755,88
1774410131.0750208,87
1774410131.0956986,83
1774410131.1124096,77
1774410131.1308498,70
1774410131.144199,65
1774410131.1642427,59
1774410131.1771228,55
1774410131.1964343,52
1774410131.211395,50
1774410131.2309442,49
1774410131.244057,49
1774410131.260931,49
1774410131.274725,50
1774410131.2973812,50
1774410131.3063693,49
1774410131.33057,47
1774410131.3466325,44
1774410131.3639863,40
1774410131.379966,37
1774410131.397249,33
1774410131.415944,29
1774410131.4307284,26
1774410131.4481359,22
1774410131.461955,19
1774410131.4798677,17
1774410131.4965985,15
1774410131.513398,12
1774410131.5306842,11
1774410131.5448034,10
1774410131.5616832,9
1774410131.5771692,9
1774410131.5925505,8
1774410131.6088717,7
1774410131.6297045,6
1774410131.64203,5
1774410131.6591864,3
1774410131.672818,3
1774410131.690405,5
1774410131.706084,11
1774410131.730885,21
1774410131.7466853,34
1774410131.764366,46
1774410131.777791,60
1774410131.7909722,70
1774410131.8168783,76
1774410131.8239744,78
1774410131.8440797,75
1774410131.8649635,70
1774410131.8807383,64
1774410131.8968463,58
1774410131.9092233,53
1774410131.9283142,48
1774410131.9450102,44
1774410131.9609444,42
1774410131.976309,41
1774410131.9903383,41
1774410132.0130353,42
1774410132.0242467,43
1774410132.0405977,45
1774410132.059806,45
1774410132.0737839,44
1774410132.0972936,42
1774410132.1082923,40
1774410132.1285417,36
1774410132.1453784,32
1774410132.1599276,28
1774410132.1801183,25
1774410132.191624,22
1774410132.2060657,19
1774410132.228208,17
1774410132.2439978,15
1774410132.260289,14
1774410132.2794166,13
1774410132.2918236,12
1774410132.3081863,11
1774410132.326801,11
1774410132.3398588,10
1774410132.3641436,9
1774410132.3767393,8
1774410132.3975916,8
1774410132.4094696,12
1774410132.4309092,18
1774410132.4404042,28
1774410132.4635205,40
1774410132.474254,52
1774410132.4971714,63
1774410132.5133173,72
1774410132.528541,76
1774410132.5466352,76
1774410132.563624,73
1774410132.579745,68
1774410132.5933297,63
1774410132.612518,57
1774410132.6275034,52
1774410132.6435966,47
1774410132.661994,44
1774410132.6766107,42
1774410132.692634,42
1774410132.7075312,42
1774410132.729479,43
1774410132.744997,44
1774410132.7561755,45
1774410132.7740448,45
1774410132.7907448,44
1774410132.8070104,41
1774410132.826997,39
1774410132.8403044,36
1774410132.8574922,32
1774410132.8735077,28
1774410132.8968523,25
1774410132.9133184,23
1774410132.930654,20
1774410132.9437673,18
1774410132.9584613,17
1774410132.9795263,15
1774410132.997504,14
1774410133.011465,13
1774410133.023634,13
1774410133.053561,12
1774410133.0597212,11
1774410133.079866,10
1774410133.0956914,9
1774410133.110215,9
1774410133.130009,10
1774410133.144935,14
1774410133.1642601,22
1774410133.1763048,33
1774410133.197765,46
1774410133.2100022,59
1774410133.231079,72
1774410133.242191,80
1774410133.2611415,84
1774410133.2727704,84
1774410133.2971387,82
1774410133.3154538,77
1774410133.3307595,72
1774410133.341016,67
1774410133.3633478,63
1774410133.3805854,59
1774410133.3896987,56
1774410133.4061518,55
1774410133.427205,54
1774410133.4416232,53
1774410133.4592607,53
1774410133.4738681,54
1774410133.4919674,54
1774410133.507118,53
1774410133.5299392,52
1774410133.5466194,49
1774410133.5640194,46
1774410133.5806262,42
1774410133.592638,39
1774410133.61468,36
1774410133.6305869,32
1774410133.6407492,29
1774410133.6641989,26
1774410133.675067,24
1774410133.697277,22
1774410133.7091672,21
1774410133.7295277,19
1774410133.7453544,18
1774410133.7589686,17
1774410133.7784681,16
1774410133.7907553,15
1774410133.8091238,14
1774410133.8280501,13
1774410133.8450475,12
1774410133.8575761,12
1774410133.872804,14
1774410133.897523,19
1774410133.9126453,27
1774410133.9251394,38
1774410133.944402,50
1774410133.965535,62
1774410133.9736843,72
1774410133.9930165,78
1774410134.008395,80
1774410134.0301695,79
1774410134.0405493,75
1774410134.0592206,70
1774410134.0791109,65
1774410134.095077,61
1774410134.1111796,57
1774410134.1251984,54
1774410134.1432416,52
1774410134.1591825,50
1774410134.1752598,50
1774410134.1911643,49
1774410134.2125971,50
1774410134.2232454,50
1774410134.2472863,50
1774410134.2653706,49
1774410134.279885,47
1774410134.2925587,44
1774410134.3124127,41
1774410134.3308992,38
1774410134.3443298,35
1774410134.3576398,31
1774410134.3768692,28
1774410134.395034,26
1774410134.4098098,24
1774410134.4287763,22
1774410134.4446223,20
1774410134.4568195,20
1774410134.4785922,19
1774410134.4893348,18
1774410134.5076027,17
1774410134.5248506,17
1774410134.5407941,16
1774410134.55682,14
1774410134.580492,13
1774410134.5965335,12
1774410134.6138444,12
1774410134.622948,16
1774410134.642717,22
1774410134.6633472,32
1774410134.6803403,42
1774410134.6926918,54
1774410134.713732,65
1774410134.7231548,72
1774410134.7447708,75
1774410134.7644112,75
1774410134.7728198,72
1774410134.7902179,67
1774410134.810171,62
1774410134.8243103,57
1774410134.8443952,53
1774410134.8603003,50
1774410134.87581,47
1774410134.8917336,46
1774410134.907181,46
1774410134.923182,46
1774410134.9472537,47
1774410134.9614203,48
1774410134.9757838,49
1774410134.9966474,48
1774410135.013275,47
1774410135.024608,44
1774410135.0471742,41
1774410135.0613935,38
1774410135.0801377,35
1774410135.0967145,32
1774410135.113313,29
1774410135.129655,26
1774410135.1443095,24
1774410135.161761,22
1774410135.1771507,21
1774410135.1976845,20
1774410135.2098234,19
1774410135.2242403,18
1774410135.2417805,17
1774410135.2578256,16
1774410135.2737277,16
1774410135.2899687,16
1774410135.3130035,20
1774410135.3366973,26
1774410135.3477848,35
1774410135.3593166,45
1774410135.380621,56
1774410135.3974864,65
1774410135.4132173,71
1774410135.4238844,73
1774410135.4471912,72
1774410135.4671297,69
1774410135.4803472,64
1774410135.4966888,59
1774410135.5082576,55
1774410135.5277328,50
1774410135.5442479,47
1774410135.5587354,45
1774410135.5833008,43
1774410135.5973918,43
1774410135.6075835,44
1774410135.624674,44
1774410135.6471837,45
1774410135.658167,45
1774410135.6809108,44
1774410135.6891541,43
1774410135.7115667,40
1774410135.7307591,38
1774410135.7431488,35
1774410135.7639604,31
1774410135.7769697,28
1774410135.7899046,26
1774410135.8068738,23
1774410135.8240623,21
1774410135.84719,19
1774410135.8612924,18
1774410135.8739815,17
1774410135.8936844,16
1774410135.9096591,15
1774410135.931007,14
1774410135.941717,13
1774410135.9579868,12
1774410135.9757338,11
1774410135.9923103,12
1774410136.0096593,14
1774410136.024726,20
1774410136.0427427,29
1774410136.0567539,40
1774410136.0761428,51
1774410136.0924876,62
1774410136.11145,70
1774410136.1239297,74
1774410136.149248,75
1774410136.1558106,73
1774410136.17286,70
1774410136.1924908,65
1774410136.2138937,61
1774410136.2248633,57
1774410136.24555,54
1774410136.2631824,51
1774410136.280423,49
1774410136.2904193,48
1774410136.307561,47
1774410136.3270383,47
1774410136.3395967,47
1774410136.3572712,47
1774410136.3805993,46
1774410136.3923683,45
1774410136.4074874,43
1774410136.4232736,40
1774410136.4472668,38
1774410136.4573617,35
1774410136.4807389,32
1774410136.4892921,28
1774410136.5137994,25
1774410136.527221,23
1774410136.5458279,21
1774410136.561543,19
1774410136.5761786,17
1774410136.5939882,16
1774410136.6137702,15
1774410136.6243887,14
1774410136.6418958,13
1774410136.657958,12
1774410136.6799326,11
1774410136.6966362,10
1774410136.7179923,9
1774410136.728314,8
1774410136.7466598,7
1774410136.760523,9
1774410136.7739656,14
1774410136.7924793,22
1774410136.8092046,33
1774410136.8242857,44
1774410136.8479066,55
1774410136.856711,64
1774410136.8805165,70
1774410136.8901188,71
1774410136.9076512,70
1774410136.9224622,67
1774410136.9447808,64
1774410136.9606373,60
1774410136.9767418,56
1774410136.9902835,53
1774410137.0081592,50
1774410137.0242317,48
1774410137.0403228,47
1774410137.058863,46
1774410137.0845385,45
1774410137.0972955,45
1774410137.108247,45
1774410137.1284704,45
1774410137.1460085,43
1774410137.1592152,42
1774410137.1824052,40
1774410137.1933634,37
1774410137.2132611,34
1774410137.2249556,31
1774410137.2458613,28
1774410137.256574,25
1774410137.2798424,22
1774410137.2890859,19
1774410137.3072848,17
1774410137.3236535,16
1774410137.3420303,14
1774410137.3580234,13
1774410137.37671,12
1774410137.3980598,11
1774410137.406141,10
1774410137.4361405,9
1774410137.4524252,8
1774410137.461434,7
1774410137.4794283,6
1774410137.4917784,4
1774410137.5132904,4
1774410137.522797,6
1774410137.5436957,11
1774410137.5605066,19
1774410137.5810661,29
1774410137.5912066,40
1774410137.6124763,51
1774410137.6247232,60
1774410137.6467593,65
1774410137.6562376,67
1774410137.6795592,65
1774410137.6914055,62
1774410137.707699,58
1774410137.7223756,54
1774410137.7415388,50
1774410137.7633946,46
1774410137.7740765,44
1774410137.7896628,42
1774410137.8079722,41
1774410137.828683,41
1774410137.8391209,41
1774410137.8670902,42
1774410137.8765197,42
1774410137.8892872,43
1774410137.915314,42
1774410137.9281113,40
1774410137.94729,39
1774410137.96213,36
1774410137.9737766,32
1774410137.9905822,29
1774410138.0139604,26
1774410138.0249753,23
1774410138.044523,21
1774410138.0569785,18
1774410138.080809,17
1774410138.0890315,15
1774410138.1094258,14
1774410138.125623,13
1774410138.144309,12
1774410138.1633081,11
1774410138.18103,10
1774410138.1936975,9
1774410138.2140713,8
1774410138.2235222,7
1774410138.2471611,8
1774410138.2607913,12
1774410138.274253,18
1774410138.2930999,27
1774410138.3137295,38
1774410138.328365,48
1774410138.3398972,57
1774410138.35669,63
1774410138.3779595,66
1774410138.392274,65
1774410138.4099288,62
1774410138.4251363,58
1774410138.4420156,53
1774410138.4570107,48
1774410138.478383,44
1774410138.4900305,40
1774410138.5059376,39
1774410138.531516,38
1774410138.5467012,38
1774410138.5617971,38
1774410138.5804205,39
1774410138.5899556,40
1774410138.6133409,40
1774410138.6247306,40
1774410138.647425,39
1774410138.664595,37
1774410138.6768172,34
1774410138.696592,31
1774410138.7122257,27
1774410138.7248669,24
1774410138.745408,21
1774410138.7608728,18
1774410138.7776434,16
1774410138.7900605,14
1774410138.8059726,12
1774410138.8255405,11
1774410138.8414502,10
1774410138.8566356,9
1774410138.8762312,9
1774410138.8890264,9
1774410138.9142768,8
1774410138.930696,7
1774410138.9525254,6
1774410138.9648123,6
1774410138.9804916,7
1774410138.9909782,11
1774410139.0163496,19
1774410139.0327284,30
1774410139.048447,41
1774410139.0588841,53
1774410139.0800538,64
1774410139.093724,72
1774410139.1116338,75
1774410139.1276345,74
1774410139.1436782,72
1774410139.1585786,67
1774410139.1762648,63
1774410139.1916475,58
1774410139.2085712,54
1774410139.2285962,50
1774410139.2471902,48
1774410139.2596953,46
1774410139.2759242,45
1774410139.2906911,45
1774410139.3138323,45
1774410139.3299646,46
1774410139.342056,46
1774410139.360418,45
1774410139.3737977,44
1774410139.3909976,42
1774410139.4143703,40
1774410139.4275765,37
1774410139.4467072,33
1774410139.4592187,30
1774410139.4742503,26
1774410139.4946706,23
1774410139.5104167,20
1774410139.5266693,18
1774410139.5403187,16
1774410139.5587857,14
1774410139.5782337,13
1774410139.592399,12
1774410139.6138566,11
1774410139.6226094,10
1774410139.6435022,9
1774410139.6569178,9
1774410139.6809394,8
1774410139.6892436,7
1774410139.7138782,6
1774410139.7288532,6
1774410139.7438624,8
1774410139.7605965,13
1774410139.7731411,22
1774410139.7903109,34
1774410139.8132515,47
1774410139.8308172,60
1774410139.8450847,71
1774410139.8570418,78
1774410139.879973,80
1774410139.8900461,79
1774410139.9058273,76
1774410139.926088,71
1774410139.9441142,66
1774410139.9556997,62
1774410139.9738133,57
1774410139.9901197,54
1774410140.0065818,52
1774410140.0265095,50
1774410140.0472758,49
1774410140.0574055,48
1774410140.075017,48
1774410140.0904932,48
1774410140.1087425,48
1774410140.1224477,47
1774410140.1472576,46
1774410140.163866,43
1774410140.1778426,40
1774410140.1996145,38
1774410140.212905,34
1774410140.229112,30
1774410140.2447755,27
1774410140.260491,24
1774410140.2814784,21
1774410140.2937856,18
1774410140.3194692,16
1774410140.3269975,14
1774410140.3398056,13
1774410140.3571868,12
1774410140.3805757,11
1774410140.3958197,10
1774410140.4133286,9
1774410140.4250145,9
1774410140.4488907,8
1774410140.4565322,7
1774410140.474855,6
1774410140.4895778,5
1774410140.5138218,5
1774410140.5305462,8
1774410140.5466094,14
1774410140.5597625,23
1774410140.578311,36
1774410140.5922232,48
1774410140.61239,62
1774410140.6269736,73
1774410140.6416798,79
1774410140.657359,81
1774410140.67536,80
1774410140.6949077,76
1774410140.7093182,71
1774410140.7247667,65
1774410140.74031,59
1774410140.757018,55
1774410140.7747624,51
1774410140.789219,48
1774410140.8073828,46
1774410140.8250344,46
1774410140.84731,46
1774410140.8568296,47
1774410140.8848298,48
1774410140.8977199,49
1774410140.908992,48
1774410140.92762,47
1774410140.9389162,44
1774410140.9623098,41
1774410140.9783664,38
1774410140.9937997,35
1774410141.0077744,31
1774410141.030111,27
1774410141.0472062,24
1774410141.056758,21
1774410141.0799623,19
1774410141.0896673,17
1774410141.1098607,15
1774410141.1287704,14
1774410141.1414998,13
1774410141.1567755,13
1774410141.177565,12
1774410141.1921792,11
1774410141.208111,10
1774410141.228845,10
1774410141.2479687,11
1774410141.25602,14
1774410141.2763085,21
1774410141.2965066,30
1774410141.3109787,41
1774410141.3237329,54
1774410141.3412094,65
1774410141.3638728,74
1774410141.3725758,78
1774410141.389814,78
1774410141.4091492,75
1774410141.4234314,70
1774410141.439115,64
1774410141.4565732,58
1774410141.47742,52
1774410141.4965515,47
1774410141.5132532,43
1774410141.528764,41
1774410141.5474975,40
1774410141.5619483,41
1774410141.5727828,42
1774410141.5949454,44
1774410141.6141326,45
1774410141.6254113,46
1774410141.6465757,45
1774410141.662759,43
1774410141.6767917,41
1774410141.6974247,38
1774410141.7055202,34
1774410141.7267842,31
1774410141.742721,27
1774410141.7562666,24
1774410141.7748072,22
1774410141.7895033,19
1774410141.8068874,18
1774410141.8243606,16
1774410141.8412206,15
1774410141.8631225,14
1774410141.8799458,13
1774410141.8952584,12
1774410141.9131963,11
1774410141.9296896,12
1774410141.9466164,15
1774410141.9632497,22
1774410141.9753313,31
1774410141.992539,42
1774410142.007313,56
1774410142.0239246,68
1774410142.0406737,78
1774410142.0620954,84
1774410142.07319,85
1774410142.0938015,83
1774410142.1133752,79
1774410142.128119,73
1774410142.1419103,67
1774410142.1665096,60
1774410142.1739862,55
1774410142.1899946,51
1774410142.2060096,48
1774410142.2248657,46
1774410142.2465556,46
1774410142.264595,47
1774410142.2807112,49
1774410142.2966063,50
1774410142.317278,50
1774410142.3234391,50
1774410142.3435297,48
1774410142.3588424,46
1774410142.3805015,43
1774410142.392428,40
1774410142.4123805,37
1774410142.428442,33
1774410142.4435112,30
1774410142.4590335,27
1774410142.4733706,25
1774410142.4928288,22
1774410142.507044,21
1774410142.5308945,20
1774410142.5430443,18
1774410142.5576873,17
1774410142.5725012,17
1774410142.588921,16
1774410142.613297,15
1774410142.630684,16
1774410142.6465764,18
1774410142.6619356,25
1774410142.6806493,35
1774410142.6944385,46
1774410142.7133195,60
1774410142.7272437,74
1774410142.7472394,85
1774410142.7616186,92
1774410142.7736309,95
1774410142.791439,93
1774410142.8101025,89
1774410142.8289135,84
1774410142.84031,77
1774410142.8579526,71
1774410142.8726118,66
1774410142.8952916,62
1774410142.9084349,59
1774410142.929336,57
1774410142.9402616,56
1774410142.9562762,56
1774410142.979219,57
1774410142.991914,58
1774410143.0132573,58
1774410143.0262382,57
1774410143.0466132,55
1774410143.0639384,53
1774410143.0799544,49
1774410143.096259,45
1774410143.1133687,41
1774410143.1307216,38
1774410143.147275,35
1774410143.162699,31
1774410143.1804085,28
1774410143.2029934,26
1774410143.210477,24
1774410143.2226605,22
1774410143.2411022,21
1774410143.2579675,20
1774410143.2727845,19
1774410143.2953124,18
1774410143.3089802,17
1774410143.326543,16
1774410143.3414018,17
1774410143.364406,20
1774410143.3767323,26
1774410143.38878,36
1774410143.4094892,47
1774410143.432154,60
1774410143.440527,74
1774410143.4642913,84
1774410143.4799185,90
1774410143.4901638,91
1774410143.5074372,89
1774410143.5287788,85
1774410143.5398939,79
1774410143.561914,73
1774410143.5722876,67
1774410143.596747,62
1774410143.609084,58
1774410143.6259646,55
1774410143.641842,53
1774410143.6581619,53
1774410143.6726892,53
1774410143.6894443,54
1774410143.7054,54
1774410143.7327006,54
1774410143.7427876,53
1774410143.7580838,51
1774410143.774435,48
1774410143.790844,45
1774410143.8101277,41
1774410143.8270023,38
1774410143.8465838,34
1774410143.8558986,31
1774410143.8753533,28
1774410143.8909307,25
1774410143.9127269,23
1774410143.9276211,21
1774410143.944871,20
1774410143.9646668,18
1774410143.9746826,17
1774410143.9927006,16
1774410144.0087764,15
1774410144.0236945,14
1774410144.0404558,15
1774410144.0561469,18
1774410144.075096,24
1774410144.093256,34
1774410144.1085987,45
1774410144.1240184,58
1774410144.1423066,70
1774410144.1638641,78
1774410144.1724787,83
1774410144.1943405,83
1774410144.2133074,80
1774410144.2264829,76
1774410144.2466328,69
1774410144.2585824,63
1774410144.2807074,57
1774410144.2949991,52
1774410144.3111894,49
1774410144.32826,46
1774410144.344625,46
1774410144.3681917,46
1774410144.3754287,48
1774410144.3912299,49
1774410144.4070487,50
1774410144.4306734,50
1774410144.4393103,48
1774410144.4642892,46
1774410144.4723806,43
1774410144.4927676,40
1774410144.5147426,36
1774410144.5296485,32
1774410144.5466037,29
1774410144.5592737,25
1774410144.5756073,23
1774410144.594699,21
1774410144.6141098,19
1774410144.6257014,17
1774410144.6474621,16
1774410144.6606555,15
1774410144.6791356,14
1774410144.6988585,15
1774410144.7100127,20
1774410144.7246802,27
1774410144.739854,37
1774410144.759,48
1774410144.7746506,60
1774410144.78913,70
1774410144.8066304,77
1774410144.8233106,80
1774410144.8466046,79
1774410144.8586195,75
1774410144.8766627,69
1774410144.9015582,63
1774410144.9066541,57
1774410144.9265547,51
1774410144.9388928,46
1774410144.9595091,43
1774410144.9734955,42
1774410144.9908376,41
1774410145.005403,42
1774410145.0293305,43
1774410145.0468204,45
1774410145.0642278,45
1774410145.0758922,44
1774410145.0916166,42
1774410145.107686,40
1774410145.1273956,37
1774410145.1391847,34
1774410145.1576061,30
1774410145.1735117,26
1774410145.1896217,23
1774410145.2111905,21
1774410145.2221065,18
1774410145.2406027,16
1774410145.2620733,15
1774410145.272319,13
1774410145.3000963,12
1774410145.309576,11
1774410145.3259056,10
1774410145.346398,10
1774410145.3647988,12
1774410145.3784618,16
1774410145.3909295,25
1774410145.412502,36
1774410145.427526,48
1774410145.4445772,61
1774410145.4621773,73
1774410145.4765937,81
1774410145.4968193,84
1774410145.5084853,83
1774410145.5257883,80
1774410145.5442705,75
1774410145.5556464,69
1774410145.5764372,64
1774410145.593635,59
1774410145.6087213,55
1774410145.630855,52
1774410145.641145,50
1774410145.665453,49
1774410145.672609,49
1774410145.6970642,49
1774410145.7132494,49
1774410145.7293942,49
1774410145.745984,48
1774410145.7630312,46
1774410145.7728019,43
1774410145.7903142,40
1774410145.8110015,37
1774410145.8274236,34
1774410145.8431616,30
1774410145.8647316,27
1774410145.8737252,24
1774410145.8899083,21
1774410145.906851,19
1774410145.9254415,17
1774410145.9445362,16
1774410145.9601128,16
1774410145.9804535,15
1774410145.9908502,14
1774410146.0139148,12
1774410146.0298355,11
1774410146.042279,11
1774410146.0638847,10
1774410146.0727732,13
1774410146.0918963,20
1774410146.1070297,30
1774410146.1277375,41
1774410146.138817,55
1774410146.1625502,68
1774410146.1729078,78
1774410146.1932466,83
1774410146.2132876,85
1774410146.2255018,83
1774410146.2414296,79
1774410146.2597063,74
1774410146.280676,69
1774410146.2903826,64
1774410146.3127534,59
1774410146.3312829,56
1774410146.3456733,53
1774410146.3580024,51
1774410146.3737428,50
1774410146.3992648,50
1774410146.4087846,50
1774410146.42727,49
1774410146.4409301,49
1774410146.4630098,47
1774410146.4742596,45
1774410146.49265,42
1774410146.5052829,39
1774410146.527209,35
1774410146.5430143,31
1774410146.5602922,28
1774410146.5760875,25
1774410146.5916724,22
1774410146.606052,20
1774410146.6254127,18
1774410146.6412902,16
1774410146.6612728,15
1774410146.671982,13
1774410146.697595,13
1774410146.7110913,12
1774410146.731392,11
1774410146.7460816,10
1774410146.7561626,9
1774410146.7739727,8
1774410146.7919693,9
1774410146.8069777,13
1774410146.8256495,20
1774410146.844095,31
1774410146.8623865,43
1774410146.8723474,57
1774410146.894144,69
1774410146.9064074,78
1774410146.9259326,82
1774410146.9402685,83
1774410146.956259,80
1774410146.9741921,76
1774410146.9902701,70
1774410147.0172043,65
1774410147.0313525,60
1774410147.0476284,55
1774410147.0608428,52
1774410147.0776105,49
1774410147.0913866,47
1774410147.1068568,46
1774410147.1325347,46
1774410147.1454654,46
1774410147.1639335,46
1774410147.1800623,45
1774410147.197718,44
1774410147.2083597,42
1774410147.2303884,40
1774410147.2396708,36
1774410147.2617257,33
1774410147.2728143,29
1774410147.2974198,26
1774410147.3051734,23
1774410147.328242,20
1774410147.3471477,18
1774410147.3658612,16
1774410147.372435,14
1774410147.3989637,13
1774410147.411699,12
1774410147.4306557,12
1774410147.4497712,11
1774410147.464002,10
1774410147.4810102,9
1774410147.4929798,8
1774410147.5125487,8
1774410147.5320623,8
1774410147.547782,12
1774410147.5633256,20
1774410147.5782106,31
1774410147.594573,44
1774410147.6083338,57
1774410147.6284628,70
1774410147.6402273,78
1774410147.660184,82
1774410147.6742935,82
1774410147.690769,78
1774410147.7073665,73
1774410147.7230854,67
1774410147.74577,62
1774410147.7633867,56
1774410147.772011,52
1774410147.79093,49
1774410147.8082018,47
1774410147.8268073,46
1774410147.84669,46
1774410147.8607767,47
1774410147.8803196,47
1774410147.8937047,48
1774410147.9102318,47
1774410147.9227374,46
1774410147.9432907,43
1774410147.9629788,40
1774410147.976234,37
1774410147.9939706,33
1774410148.0100384,29
1774410148.030438,26
1774410148.0410821,23
1774410148.0603552,20
1774410148.0728128,18
1774410148.090093,16
1774410148.1062038,15
1774410148.1220295,14
1774410148.146815,13
1774410148.1599736,12
1774410148.1728263,11
1774410148.1922786,11
1774410148.207653,14
1774410148.228237,19
1774410148.2450066,28
1774410148.2560494,39
1774410148.2782147,51
1774410148.296428,64
1774410148.3117764,73
1774410148.329626,80
1774410148.3475316,81
1774410148.3614419,79
1774410148.3776655,75
1774410148.3930602,69
1774410148.4082386,62
1774410148.428805,56
1774410148.4403517,51
1774410148.4591005,47
1774410148.4739444,44
1774410148.4924836,42
1774410148.5089579,42
1774410148.5217915,42
1774410148.5492477,43
1774410148.5632179,44
1774410148.57988,44
1774410148.5972934,43
1774410148.60789,41
1774410148.6300323,39
1774410148.6465843,36
1774410148.6618252,32
1774410148.675129,28
1774410148.6966424,24
1774410148.7125084,21
1774410148.726947,18
1774410148.7449787,16
1774410148.7599237,14
1774410148.7770214,13
1774410148.7900527,12
1774410148.8079493,11
1774410148.8252769,10
1774410148.8475864,9
1774410148.8568263,8
1774410148.8729274,7
1774410148.8890798,8
1774410148.905647,11
1774410148.9277046,17
1774410148.944822,28
1774410148.964152,40
1774410148.9800453,55
1774410148.9915586,70
1774410149.014268,82
1774410149.0218542,89
1774410149.0466254,91
1774410149.0617175,89
1774410149.0794635,85
1774410149.0959167,79
1774410149.1110046,72
1774410149.1271036,66
1774410149.1431642,61
1774410149.1590939,56
1774410149.1761951,53
1774410149.192918,50
1774410149.2059846,49
1774410149.2293174,49
1774410149.2474546,49
1774410149.2560687,49
1774410149.2741544,49
1774410149.2886508,48
1774410149.3113155,46
1774410149.3285608,43
1774410149.344742,40
1774410149.3616536,36
1774410149.3808014,32
1774410149.3966436,28
1774410149.4132469,25
1774410149.4315174,21
1774410149.445931,19
1774410149.4619052,17
1774410149.4735906,15
1774410149.4951737,13
1774410149.509918,12
1774410149.5259085,11
1774410149.5418396,10
1774410149.5633082,9
1774410149.5739048,8
1774410149.5951617,7
1774410149.605952,7
1774410149.6220748,10
1774410149.6428146,17
1774410149.6581483,28
1774410149.6805222,41
1774410149.6884372,56
1774410149.7132351,71
1774410149.721728,83
1774410149.745754,89
1774410149.7600598,91
1774410149.7732651,89
1774410149.789539,84
1774410149.808636,78
1774410149.8272924,71
1774410149.844723,65
1774410149.8585389,59
1774410149.8744361,54
1774410149.8945851,51
1774410149.9064598,48
1774410149.9299572,47
1774410149.9385586,47
1774410149.9636483,48
1774410149.980799,48
1774410149.9959571,48
1774410150.0096476,47
1774410150.0248127,45
1774410150.0476358,42
1774410150.0590098,39
1774410150.0753968,35
1774410150.089321,31
1774410150.108717,26
1774410150.124743,22
1774410150.1460817,19
1774410150.1555858,16
1774410150.1781137,14
1774410150.1940043,12
1774410150.210749,10
1774410150.2278948,9
1774410150.2412765,8
1774410150.257028,7
1774410150.2745688,6
1774410150.2892506,5
1774410150.3124332,4
1774410150.32716,3
1774410150.3409207,4
1774410150.3653154,7
1774410150.3746402,15
1774410150.3903594,27
1774410150.4138849,40
1774410150.425041,56
1774410150.447299,71
1774410150.4565868,82
1774410150.4799154,88
1774410150.4887075,89
1774410150.5112991,86
1774410150.528578,81
1774410150.543662,74
1774410150.5592713,66
1774410150.5753841,60
1774410150.5913258,54
1774410150.6074216,49
1774410150.623914,46
1774410150.6398275,44
1774410150.6553988,44
1774410150.6731598,45
1774410150.6972868,46
1774410150.7112458,47
1774410150.730625,47
1774410150.7475603,46
1774410150.7616465,44
1774410150.7728453,41
1774410150.789859,38
1774410150.8211691,34
1774410150.8240762,30
1774410150.8465729,26
1774410150.8572528,22
1774410150.8804934,19
1774410150.8885622,17
1774410150.9175057,14
1774410150.926514,13
1774410150.9474466,11
1774410150.9556105,10
1774410150.9774501,9
1774410150.9883704,8
1774410151.0076349,7
1774410151.0224829,8
1774410151.047632,12
1774410151.0648513,19
1774410151.077543,31
1774410151.094651,44
1774410151.1142313,59
1774410151.1267502,72
1774410151.1475477,82
1774410151.157425,87
1774410151.1735024,87
1774410151.1961675,83
1774410151.2132661,77
1774410151.2266443,69
1774410151.2466366,61
1774410151.2581189,53
1774410151.2764008,47
1774410151.2901585,42
1774410151.3094308,40
1774410151.3217967,39
1774410151.3403418,39
1774410151.3586752,40
1774410151.3804123,42
1774410151.3966413,43
1774410151.4099739,43
1774410151.4266293,43
1774410151.447162,40
1774410151.4647455,38
1774410151.4812312,34
1774410151.4966035,30
1774410151.5108845,26
1774410151.527366,22
1774410151.5473585,18
1774410151.5576868,15
1774410151.5808954,13
1774410151.596882,11
1774410151.606968,9
1774410151.6244414,8
1774410151.6448724,6
1774410151.6598687,6
1774410151.676897,5
1774410151.6889293,5
1774410151.709921,7
1774410151.7249947,13
1774410151.7465835,23
1774410151.7561758,37
1774410151.772927,52
1774410151.7906702,68
1774410151.806169,83
1774410151.829843,92
1774410151.8394942,96
1774410151.860023,95
1774410151.8778663,90
1774410151.8962808,61
1774410151.914113,57
1774410151.9298325,53
1774410151.9418354,50
1774410151.9633553,47
1774410151.9804454,44
1774410151.9946048,43
1774410152.0114677,42
1774410152.0248098,42
1774410152.0441034,43
1774410152.0563915,44
1774410152.0747142,44
1774410152.0887017,44
1774410152.108006,43
1774410152.1216488,42
1774410152.1402216,40
1774410152.1631818,39
1774410152.1721683,37
1774410152.1966424,35
1774410152.2089715,33
1774410152.2245696,31
1774410152.2472322,30
1774410152.2594914,28
1774410152.2815602,27
1774410152.2957973,26
1774410152.3140497,25
1774410152.3252146,25
1774410152.338967,24
1774410152.3615174,24
1774410152.3749158,23
1774410152.3937728,24
1774410152.4109375,25
1774410152.4245257,29
1774410152.4392834,35
1774410152.4572377,42
1774410152.4751678,51
1774410152.4886446,59
1774410152.5073538,65
1774410152.5215616,69
1774410152.5474827,70
1774410152.5632658,69
1774410152.5769682,66
1774410152.598052,62
1774410152.606512,58
1774410152.6269577,53
1774410152.6442225,50
1774410152.6649797,47
1774410152.6806142,45
1774410152.6969938,44
1774410152.7129886,44
1774410152.729164,44
1774410152.7413685,44
1774410152.7606623,45
1774410152.7751,45
1774410152.789284,44
1774410152.8074424,43
1774410152.8242123,42
1774410152.8414423,40
1774410152.8562975,39
1774410152.8720117,36
1774410152.8892958,34
1774410152.9090695,32
1774410152.921542,30
1774410152.9473124,29
1774410152.9613287,27
1774410152.984392,26
1774410152.9966147,25
1774410153.0142336,25
1774410153.0282214,24
1774410153.046762,23
1774410153.0554912,23
1774410153.080493,23
1774410153.0966427,25
1774410153.1107535,28
1774410153.1287565,34
1774410153.1445396,40
1774410153.160686,49
1774410153.1798413,57
1774410153.1926992,64
1774410153.2089353,68
1774410153.2242827,69
1774410153.2455661,68
1774410153.2567675,65
1774410153.274585,61
1774410153.2884278,56
1774410153.3049927,52
1774410153.322194,48
1774410153.3430834,45
1774410153.3548646,43
1774410153.3804781,42
1774410153.3893237,42
1774410153.4128788,42
1774410153.425939,43
1774410153.446151,44
1774410153.4625292,44
1774410153.4747868,44
1774410153.488526,43
1774410153.5055618,42
1774410153.527115,40
1774410153.5430877,39
1774410153.5577083,36
1774410153.5758157,34
1774410153.592383,32
1774410153.6066823,30
1774410153.6224325,29
1774410153.6386788,28
1774410153.6625948,27
1774410153.6791773,26
1774410153.6888554,25
1774410153.7142785,24
1774410153.7268598,24
1774410153.7465959,24
1774410153.7648954,27
1774410153.7739148,31
1774410153.7939234,37
1774410153.8145485,44
1774410153.8299413,53
1774410153.8464668,60
1774410153.86121,66
1774410153.8751216,68
1774410153.8895926,68
1774410153.9104137,66
1774410153.9278474,61
1774410153.9466608,57
1774410153.958623,53
1774410153.9787865,48
1774410153.9894185,45
1774410154.006054,42
1774410154.0243926,41
1774410154.0474677,41
1774410154.0565603,41
1774410154.0770593,42
1774410154.0907505,43
1774410154.1153042,44
1774410154.1301262,44
1774410154.1494825,44
1774410154.1612062,43
1774410154.1802206,41
1774410154.18974,40
1774410154.2128425,37
1774410154.224047,35
1774410154.244881,33
1774410154.2579422,31
1774410154.2767904,30
1774410154.289027,28
1774410154.3069866,27
1774410154.324983,26
1774410154.340824,26
1774410154.3610163,26
1774410154.3782082,28
1774410154.3890412,32
1774410154.4052067,39
1774410154.4273272,45
1774410154.439088,54
1774410154.4580069,62
1774410154.4806473,67
1774410154.4882083,70
1774410154.5169723,70
1774410154.5214965,68
1774410154.5459404,64
1774410154.563915,60
1774410154.5720248,55
1774410154.5928016,51
1774410154.6132765,48
1774410154.6237154,45
1774410154.6440945,43
1774410154.6584446,43
1774410154.6748054,43
1774410154.6899922,44
1774410154.7077472,45
1774410154.726031,46
1774410154.7384906,46
1774410154.7603736,45
1774410154.7734802,44
1774410154.7910204,42
1774410154.8073165,40
1774410154.824713,39
1774410154.8415573,36
1774410154.8563552,34
1774410154.87632,32
1774410154.8889728,31
1774410154.9135907,30
1774410154.9294956,28
1774410154.9409814,28
1774410154.9662964,27
1774410154.9777417,27
1774410154.9934967,28
1774410155.004854,31
1774410155.0274498,37
1774410155.040917,43
1774410155.0555544,52
1774410155.0736105,61
1774410155.0894818,68
1774410155.1088867,73
1774410155.1283455,75
1774410155.1500661,74
1774410155.160282,71
1774410155.1801565,67
1774410155.1921654,62
1774410155.212756,58
1774410155.2221963,54
1774410155.245396,51
1774410155.2605636,49
1774410155.2805514,48
1774410155.2970185,48
1774410155.3047934,48
1774410155.3333387,49
1774410155.3450165,49
1774410155.360947,49
1774410155.376959,49
1774410155.3893614,47
1774410155.4054005,46
1774410155.4233718,44
1774410155.4399543,41
1774410155.464697,40
1774410155.4761224,38
1774410155.488607,35
1774410155.5086143,34
1774410155.5307035,32
1774410155.546661,31
1774410155.5607069,30
1774410155.5743914,29
1774410155.5925567,28
1774410155.6126306,28
1774410155.6246688,30
1774410155.6428084,34
1774410155.6570585,40
1774410155.6804345,47
1774410155.6960876,56
1774410155.7047288,64
1774410155.7287827,70
1774410155.738095,74
1774410155.7603395,75
1774410155.776264,73
1774410155.7884035,70
1774410155.8089237,66
1774410155.8215742,61
1774410155.84051,57
1774410155.8557315,54
1774410155.8717194,51
1774410155.8966932,49
1774410155.9140131,48
1774410155.9284046,48
1774410155.9399219,48
1774410155.957926,48
1774410155.9767437,49
1774410155.993264,48
1774410156.0053363,48
1774410156.022571,46
1774410156.0410824,44
1774410156.0634224,42
1774410156.074474,40
1774410156.0945,38
1774410156.1047444,36
1774410156.129032,34
1774410156.1473746,32
1774410156.1604846,31
1774410156.1775646,29
1774410156.1912217,28
1774410156.2064588,28
1774410156.2271318,27
1774410156.2403638,28
1774410156.2638881,31
1774410156.2714248,36
1774410156.2965286,42
1774410156.3170893,50
1774410156.3287358,59
1774410156.3445935,65
1774410156.3640907,70
1774410156.3771188,71
1774410156.3927968,70
1774410156.4097135,67
1774410156.4325879,64
1774410156.4402266,59
1774410156.4634025,55
1774410156.47224,51
1774410156.4966805,49
1774410156.5047176,47
1774410156.5313878,46
1774410156.5465915,45
1774410156.556493,46
1774410156.5716705,46
1774410156.5904856,47
1774410156.613258,47
1774410156.6304288,46
1774410156.646411,44
1774410156.6642723,43
1774410156.6749148,40
1774410156.6924188,39
1774410156.7143924,37
1774410156.7304704,35
1774410156.7463543,33
1774410156.7624311,31
1774410156.7759683,29
1774410156.791359,28
1774410156.8100522,27
1774410156.8264515,26
1774410156.8419845,26
1774410156.857947,27
1774410156.8727336,29
1774410156.8900008,34
1774410156.9057932,40
1774410156.9346673,47
1774410156.9449492,55
1774410156.9629455,62
1774410156.9771671,67
1774410156.9967477,68
1774410157.0132153,67
1774410157.033836,64
1774410157.0386114,61
1774410157.0632439,56
1774410157.07673,52
1774410157.094215,49
1774410157.1100767,46
1774410157.129185,44
1774410157.1465335,43
1774410157.1600344,43
1774410157.1809444,44
1774410157.1899116,44
1774410157.2073455,45
1774410157.2243314,45
1774410157.2403297,44
1774410157.2585642,43
1774410157.2724938,41
1774410157.2884154,40
1774410157.3046348,38
1774410157.3351352,35
1774410157.3466105,33
1774410157.3637838,32
1774410157.377403,30
1774410157.3999603,29
1774410157.416348,28
1774410157.4306095,27
1774410157.4380527,26
1774410157.46384,26
1774410157.4792523,27
1774410157.4960968,30
1774410157.5102015,36
1774410157.5284212,42
1774410157.541863,51
1774410157.5631351,58
1774410157.5764632,65
1774410157.5965593,68
1774410157.6083689,69
1774410157.6305358,67
1774410157.6402419,64
1774410157.6563463,60
1774410157.6724494,56
1774410157.6894934,52
1774410157.704619,49
1774410157.7306108,47
1774410157.746551,45
1774410157.763845,44
1774410157.7720733,44
1774410157.7910554,45
1774410157.8070683,45
1774410157.825126,45
1774410157.8466206,45
1774410157.8640747,44
1774410157.8726523,42
1774410157.8965044,40
1774410157.9122844,39
1774410157.928475,37
1774410157.9495063,35
1774410157.9596744,33
1774410157.9756935,31
1774410157.991754,30
1774410158.0077372,29
1774410158.0254676,28
1774410158.0447567,27
1774410158.0576332,26
1774410158.0717647,26
1774410158.0953698,26
1774410158.1047037,29
1774410158.128347,33
1774410158.1413221,40
1774410158.163239,47
1774410158.180918,56
1774410158.1992524,63
1774410158.2152576,68
1774410158.2252693,70
1774410158.2421923,70
1774410158.2632592,68
1774410158.2714293,64
1774410158.2952995,61
1774410158.3051105,57
1774410158.3304558,54
1774410158.343269,51
1774410158.359241,49
1774410158.3718865,47
1774410158.3935108,46
1774410158.407705,46
1774410158.4306264,46
1774410158.4392183,46
1774410158.456645,46
1774410158.4727137,45
1774410158.4929295,44
1774410158.5046268,42
1774410158.533687,40
1774410158.5387857,39
1774410158.5604982,37
1774410158.5721936,35
1774410158.5977244,33
1774410158.6132474,31
1774410158.629617,29
1774410158.6436765,28
1774410158.661699,27
1774410158.6776676,27
1774410158.693689,26
1774410158.7148292,25
1774410158.730491,25
1774410158.7412848,25
1774410158.7578294,24
1774410158.7754037,24
1774410158.7888868,26
1774410158.806947,31
1774410158.82799,37
1774410158.840855,44
1774410158.863784,53
1774410158.8748713,61
1774410158.891124,67
1774410158.904715,70
1774410158.9272037,71
1774410158.9426641,69
1774410158.9638174,66
1774410158.9763522,63
1774410158.9961138,59
1774410159.005957,56
1774410159.0218232,53
1774410159.0440874,51
1774410159.060187,49
1774410159.0780084,48
1774410159.0921674,47
1774410159.1080418,47
1774410159.1241956,46
1774410159.1434166,46
1774410159.156953,46
1774410159.1745615,44
1774410159.18796,43
1774410159.2091203,41
1774410159.2304583,40
1774410159.2408018,37
1774410159.2632992,35
1774410159.2760231,33
1774410159.2960534,31
1774410159.309605,29
1774410159.3312078,28
1774410159.3418975,27
1774410159.3632932,26
1774410159.3743913,25
1774410159.3952403,25
1774410159.4047658,24
1774410159.4272685,24
1774410159.4378736,23
1774410159.456096,23
1774410159.4776669,23
1774410159.4942484,22
1774410159.512098,22
1774410159.5306752,21
1774410159.544813,21
1774410159.5580363,20
1774410159.5733635,19
1774410159.5965185,19
1774410159.6116621,19
1774410159.6284168,22
1774410159.6404312,28
1774410159.6593482,36
1774410159.6744092,44
1774410159.6919272,54
1774410159.7057354,63
1774410159.7282467,69
1774410159.743652,72
1774410159.759714,72
1774410159.776865,70
1774410159.7904437,67
1774410159.8083522,63
1774410159.8236866,60
1774410159.8454125,56
1774410159.8558476,54
1774410159.8721578,52
1774410159.8966324,50
1774410159.9097843,49
1774410159.9305625,49
1774410159.9442596,49
1774410159.9642286,49
1774410159.976637,48
1774410160.001409,48
1774410160.00828,47
1774410160.0284584,45
1774410160.0407104,43
1774410160.0637474,41
1774410160.0727952,39
1774410160.0958009,37
1774410160.108145,34
1774410160.1276422,32
1774410160.14684,31
1774410160.1569548,30
1774410160.178094,29
1774410160.1937165,28
1774410160.2077327,27
1774410160.223754,27
1774410160.239317,25
1774410160.2561746,25
1774410160.2751832,25
1774410160.2956288,25
1774410160.3071954,24
1774410160.328095,24
1774410160.3428292,23
1774410160.366844,22
1774410160.3763068,22
1774410160.3970013,22
1774410160.4082525,25
1774410160.4282765,30
1774410160.4444988,37
1774410160.4572294,45
1774410160.4726303,53
1774410160.4949446,61
1774410160.510228,65
1774410160.5279605,67
1774410160.5381327,66
1774410160.563231,63
1774410160.5755858,60
1774410160.5886264,56
1774410160.60593,52
1774410160.6261194,49
1774410160.6385422,46
1774410160.66209,45
1774410160.675214,44
1774410160.6971323,43
1774410160.7113273,43
1774410160.7305813,44
1774410160.7430913,45
1774410160.756446,44
1774410160.7717254,44
1774410160.7884376,43
1774410160.8113525,41
1774410160.8254602,40
1774410160.841057,38
1774410160.8614857,35
1774410160.8752651,33
1774410160.892436,31
1774410160.906902,29
1774410160.923911,28
1774410160.9380836,27
1774410160.955957,26
1774410160.97242,25
1774410160.9881294,25
1774410161.0137875,24
1774410161.0281553,24
1774410161.0519617,24
1774410161.0569992,23
1774410161.076754,23
1774410161.0937636,22
1774410161.112806,22
1774410161.1299179,21
1774410161.1446965,22
1774410161.1638844,24
1774410161.1764674,29
1774410161.1958807,36
1774410161.2084718,44
1774410161.2249925,53
1774410161.2390397,60
1774410161.2600055,66
1774410161.273277,68
1774410161.294578,68
1774410161.3045883,65
1774410161.3304837,62
1774410161.3394377,58
1774410161.355829,54
1774410161.3721535,51
1774410161.3969362,48
1774410161.4116547,46
1774410161.4299521,44
1774410161.4455538,44
1774410161.463208,44
1774410161.4801376,44
1774410161.4981365,44
1774410161.5049531,45
1774410161.5298407,45
1774410161.544283,44
1774410161.561512,42
1774410161.576731,40
1774410161.592988,39
1774410161.6082373,37
1774410161.6298,34
1774410161.6410694,32
1774410161.6579509,30
1774410161.672965,29
1774410161.6911767,27
1774410161.7055964,26
1774410161.7291596,25
1774410161.7380538,25
1774410161.7543662,24
1774410161.772912,24
1774410161.7900627,23
1774410161.8066616,23
1774410161.8268027,23
1774410161.8472223,22
1774410161.859126,22
1774410161.8799517,21
1774410161.897056,21
1774410161.9128933,20
1774410161.929082,21
1774410161.9378204,23
1774410161.959585,29
1774410161.9745638,36
1774410161.9929924,44
1774410162.0087225,54
1774410162.0250928,62
1774410162.0409694,68
1774410162.0569272,71
1774410162.0730953,71
1774410162.091975,69
1774410162.1052787,66
1774410162.1298614,62
1774410162.1470618,58
1774410162.1612391,54
1774410162.1806474,51
1774410162.197397,49
1774410162.2141924,48
1774410162.2307208,47
1774410162.2474847,46
1774410162.2632034,46
1774410162.275769,47
1774410162.2956805,47
1774410162.3114793,47
1774410162.3274136,46
1774410162.3404436,45
1774410162.3632438,43
1774410162.3754709,40
1774410162.3971748,39
1774410162.4093018,36
1774410162.4270535,34
1774410162.4412584,32
1774410162.4637885,30
1774410162.4729831,29
1774410162.4898121,27
1774410162.5046616,26
1774410162.521053,26
1774410162.539933,25
1774410162.562117,24
1774410162.5819685,24
1774410162.5894651,24
1774410162.6064515,23
1774410162.62554,23
1774410162.6475136,23
1774410162.6547496,22
1774410162.6784136,22
1774410162.692673,21
1774410162.704916,20
1774410162.7266123,20
1774410162.7426207,22
1774410162.7635055,26
1774410162.7746942,33
1774410162.7894742,41
1774410162.8068352,51
1774410162.8276198,61
1774410162.8423884,68
1774410162.8631184,72
1774410162.8772073,73
1774410162.8918986,72
1774410162.9111338,69
1774410162.922972,64
1774410162.940037,60
1774410162.954831,57
1774410162.9751744,54
1774410162.9970138,51
1774410163.0071523,49
1774410163.029141,48
1774410163.0468369,47
1774410163.0610485,47
1774410163.0802166,47
1774410163.0965765,47
1774410163.112142,47
1774410163.1221159,47
1774410163.1396258,46
1774410163.1563659,44
1774410163.1729894,42
1774410163.1899574,40
1774410163.2087433,38
1774410163.2313046,35
1774410163.2418327,33
1774410163.2635014,31
1774410163.2786846,29
1774410163.2894278,28
1774410163.3127127,27
1774410163.3210173,26
1774410163.342496,25
1774410163.3632195,24
1774410163.3782055,24
1774410163.3994465,24
1774410163.4087389,23
1774410163.42987,23
1774410163.4408407,23
1774410163.4583523,22
1774410163.4751992,22
1774410163.4912622,21
1774410163.5142715,20
1774410163.5249994,20
1774410163.539402,21
1774410163.5553653,25
1774410163.5752106,31
1774410163.59227,39
1774410163.6084418,47
1774410163.6305048,57
1774410163.6397848,65
1774410163.6566763,70
1774410163.6800134,72
1774410163.6883636,71
1774410163.7086616,68
1774410163.720927,64
1774410163.7440665,60
1774410163.761443,56
1774410163.772804,53
1774410163.7882035,50
1774410163.8064206,48
1774410163.8228576,46
1774410163.8420079,46
