timestamp,bvp
1774419260.1849585,42
1774419260.2015867,42
1774419260.2182474,42
1774419260.234943,42
1774419260.2516136,43
1774419260.268251,44
1774419260.284943,45
1774419260.3015723,45
1774419260.3182309,44
1774419260.3349066,42
1774419260.3515866,40
1774419260.368251,37
1774419260.384929,34
1774419260.4015853,30
1774419260.4182615,28
1774419260.4349158,25
1774419260.451944,22
1774419260.469187,20
1774419260.4858723,17
1774419260.502155,15
1774419260.5186021,13
1774419260.5351336,11
1774419260.5521035,9
1774419260.56867,8
1774419260.5853093,8
1774419260.6018934,8
1774419260.6185424,9
1774419260.635728,10
1774419260.6519423,13
1774419260.668667,19
1774419260.684985,27
1774419260.7019894,38
1774419260.7185218,48
1774419260.735467,58
1774419260.7524633,66
1774419260.7686486,70
1774419260.785214,70
1774419260.8018742,67
1774419260.818788,63
1774419260.8350658,58
1774419260.8520136,53
1774419260.8685443,49
1774419260.8851461,46
1774419260.9019227,44
1774419260.9182794,44
1774419260.9351358,44
1774419260.951652,45
1774419260.9685137,46
1774419260.9852016,46
1774419261.0018883,47
1774419261.0184307,47
1774419261.0351408,46
1774419261.0516434,45
1774419261.0685382,42
1774419261.084879,40
1774419261.1022902,38
1774419261.118728,35
1774419261.135337,33
1774419261.1518261,31
1774419261.168728,29
1774419261.1860235,28
1774419261.2017648,27
1774419261.2183614,26
1774419261.2350104,25
1774419261.251891,24
1774419261.268338,23
1774419261.2852366,22
1774419261.301814,21
1774419261.3187425,20
1774419261.335172,20
1774419261.3519418,23
1774419261.368625,29
1774419261.386318,37
1774419261.4015906,45
1774419261.4182656,55
1774419261.43526,63
1774419261.4520302,68
1774419261.4689007,69
1774419261.4850106,67
1774419261.5019917,62
1774419261.5184958,57
1774419261.5350866,52
1774419261.5516212,48
1774419261.5685928,44
1774419261.5851865,42
1774419261.601798,41
1774419261.6185458,41
1774419261.6352868,41
1774419261.6518424,43
1774419261.6685925,44
1774419261.6850224,46
1774419261.7017283,46
1774419261.7182899,46
1774419261.734976,45
1774419261.752029,43
1774419261.7719395,40
1774419261.7849271,39
1774419261.8086755,36
1774419261.8196661,34
1774419261.8357103,32
1774419261.8516548,30
1774419261.8792646,29
1774419261.884819,27
1774419261.9062467,26
1774419261.9222476,25
1774419261.9382896,24
1774419261.9542143,23
1774419261.9683511,23
1774419261.9866204,25
1774419262.0015821,29
1774419262.0200179,37
1774419262.0411584,45
1774419262.0517776,55
1774419262.0714529,63
1774419262.0882983,69
1774419262.1122093,70
1774419262.1236594,69
1774419262.1396925,65
1774419262.1525695,60
1774419262.1788938,55
1774419262.1873226,51
1774419262.2036746,47
1774419262.2196987,45
1774419262.2378743,44
1774419262.2530224,44
1774419262.2720215,44
1774419262.28611,45
1774419262.3038936,47
1774419262.3181334,48
1774419262.3388026,48
1774419262.354655,48
1774419262.3709073,46
1774419262.3873448,44
1774419262.40869,41
1774419262.420676,39
1774419262.439524,37
1774419262.460955,34
1774419262.4697742,32
1774419262.491673,30
1774419262.5034134,29
1774419262.5209565,27
1774419262.536808,26
1774419262.551731,25
1774419262.5687199,23
1774419262.5893435,23
1774419262.6036592,24
1774419262.6208336,28
1774419262.6390982,35
1774419262.6533003,44
1774419262.6706686,54
1774419262.6849155,64
1774419262.705395,71
1774419262.7181463,75
1774419262.7363317,76
1774419262.7605016,73
1774419262.774699,69
1774419262.790492,65
1774419262.8035347,62
1774419262.8209434,59
1774419262.840558,57
1774419262.855657,55
1774419262.8710134,55
1774419262.8855672,55
1774419262.9100876,55
1774419262.9236462,56
1774419262.935981,56
1774419262.9526045,57
1774419262.9689095,57
1774419262.9861422,56
1774419263.0037346,54
1774419263.0196593,52
1774419263.0369008,50
1774419263.0530813,47
1774419263.0695689,45
1774419263.0849042,43
1774419263.1100001,41
1774419263.1250794,40
1774419263.1391122,39
1774419263.1627002,37
1774419263.1712525,36
1774419263.1921918,35
1774419263.2033153,33
1774419263.2185593,33
1774419263.235802,34
1774419263.2518883,39
1774419263.2738473,45
1774419263.289511,55
1774419263.3032658,65
1774419263.3236957,75
1774419263.3396242,82
1774419263.3559778,86
1774419263.3687515,86
1774419263.387656,83
1774419263.4036715,80
1774419263.4202595,76
1774419263.43912,73
1774419263.4528158,70
1774419263.4681244,69
1774419263.485058,67
1774419263.5025337,67
1774419263.5200977,67
1774419263.5357943,67
1774419263.5523856,67
1774419263.5721018,67
1774419263.590643,68
1774419263.605612,67
1774419263.6209683,66
1774419263.6408875,64
1774419263.6551766,62
1774419263.674764,59
1774419263.6867557,57
1774419263.7067153,54
1774419263.7187405,52
1774419263.7387557,50
1774419263.753802,48
1774419263.7715216,47
1774419263.7876573,45
1774419263.80141,43
1774419263.8196537,42
1774419263.8348908,40
1774419263.8534067,40
1774419263.8710985,39
1774419263.888913,40
1774419263.912688,44
1774419263.918121,52
1774419263.9399197,61
1774419263.9551368,72
1774419263.9691558,81
1774419263.9855015,88
1774419264.0092926,92
1774419264.0185118,92
1774419264.041281,90
1774419264.0514507,86
1774419264.0720437,83
1774419264.089269,80
1774419264.1051953,78
1774419264.1214194,76
1774419264.1373312,74
1774419264.1563754,73
1774419264.1693208,73
1774419264.1851861,72
1774419264.2036645,72
1774419264.2184618,72
1774419264.235635,71
1774419264.2526581,70
1774419264.2733145,68
1774419264.2847998,66
1774419264.3122072,63
1774419264.3233507,59
1774419264.3395638,56
1774419264.3565784,53
1774419264.369607,50
1774419264.39173,48
1774419264.4076068,46
1774419264.422095,45
1774419264.440524,44
1774419264.4607882,42
1774419264.4742575,41
1774419264.4868822,40
1774419264.512097,38
1774419264.5220883,37
1774419264.5378895,35
1774419264.5523708,35
1774419264.5813503,37
1774419264.5876787,42
1774419264.6056674,49
1774419264.6200593,59
1774419264.6356113,68
1774419264.6516669,76
1774419264.6804924,81
1774419264.6851149,83
1774419264.70451,81
1774419264.7270117,78
1774419264.7408934,75
1774419264.7565408,71
1774419264.7689385,69
1774419264.7906122,66
1774419264.8019323,64
1774419264.8183525,63
1774419264.8409023,62
1774419264.8537273,62
1774419264.87509,61
1774419264.8857725,61
1774419264.9017847,61
1774419264.9183722,60
1774419264.9397924,59
1774419264.955773,57
1774419264.9688318,54
1774419264.988003,51
1774419265.0080907,48
1774419265.0181458,45
1774419265.0356424,43
1774419265.0528102,40
1774419265.069586,39
1774419265.0851219,37
1774419265.1025932,35
1774419265.1180196,34
1774419265.140977,32
1774419265.1537411,30
1774419265.179554,29
1774419265.1882336,27
1774419265.2116423,26
1774419265.219762,25
1774419265.235803,25
1774419265.2517772,28
1774419265.2787464,33
1774419265.2894778,40
1774419265.30809,49
1774419265.318181,58
1774419265.3364992,65
1774419265.3536234,69
1774419265.3683329,70
1774419265.3881383,68
1774419265.4068718,65
1774419265.424157,61
1774419265.4367864,57
1774419265.454204,54
1774419265.4753892,52
1774419265.4849224,50
1774419265.5064507,49
1774419265.517957,48
1774419265.535358,48
1774419265.5515013,48
1774419265.570246,48
1774419265.5874987,48
1774419265.602752,48
1774419265.6185818,46
1774419265.6389818,44
1774419265.6597772,41
1774419265.6788344,40
1774419265.6851802,37
1774419265.7076151,34
1774419265.7205892,32
1774419265.739609,30
1774419265.7569518,28
1774419265.7703724,27
1774419265.7884576,26
1774419265.8013754,24
1774419265.8209913,23
1774419265.8418887,22
1774419265.8516452,20
1774419265.8699062,19
1774419265.8860812,19
1774419265.903594,21
1774419265.9179375,25
1774419265.9350812,31
1774419265.9531636,40
1774419265.9683676,48
1774419265.9868083,56
1774419266.0117137,62
1774419266.0283728,65
1774419266.0442753,65
1774419266.0597186,62
1774419266.0749092,59
1774419266.0923402,55
1774419266.107611,52
1774419266.119828,49
1774419266.1431642,47
1774419266.1556242,46
1774419266.1719177,45
1774419266.1896636,45
1774419266.2067838,46
1774419266.2230244,46
1774419266.23668,46
1774419266.2516444,46
1774419266.270088,45
1774419266.2848911,44
1774419266.3050122,42
1774419266.31796,40
1774419266.3418455,38
1774419266.3570447,35
1774419266.3691638,33
1774419266.395525,32
1774419266.4035466,30
1774419266.4191613,29
1774419266.4394898,27
1774419266.4572413,26
1774419266.47333,25
1774419266.4917147,23
1774419266.5036976,23
1774419266.5195959,25
1774419266.5357556,30
1774419266.555629,37
1774419266.5716403,45
1774419266.5885522,55
1774419266.6036313,63
1774419266.618229,69
1774419266.6356668,71
1774419266.6532829,70
1774419266.678787,67
1774419266.684709,64
1774419266.7015514,61
1774419266.7191565,58
1774419266.7379067,56
1774419266.7533333,55
1774419266.7744055,53
1774419266.7910545,52
1774419266.8111575,51
1774419266.8193364,51
1774419266.8421724,51
1774419266.8609462,50
1774419266.869013,50
1774419266.8916683,49
1774419266.9061742,47
1774419266.920066,45
1774419266.9397242,42
1774419266.953405,40
1774419266.9695916,38
1774419266.9857144,36
1774419267.0036254,34
1774419267.0197437,32
1774419267.0357504,31
1774419267.0516584,29
1774419267.0715787,27
1774419267.0911148,25
1774419267.1073132,24
1774419267.123448,23
1774419267.1439412,25
1774419267.15418,30
1774419267.178787,37
1774419267.1954932,46
1774419267.203489,56
1774419267.2200615,64
1774419267.2389367,70
1774419267.2586467,73
1774419267.269521,72
1774419267.2871587,70
1774419267.305669,67
1774419267.3187168,64
1774419267.3390229,62
1774419267.3535054,61
1774419267.375638,59
1774419267.3855867,57
1774419267.4015634,56
1774419267.420699,54
1774419267.4356835,52
1774419267.451644,51
1774419267.4705312,50
1774419267.4851537,50
1774419267.5036588,49
1774419267.5180354,47
1774419267.5401933,45
1774419267.5584557,43
1774419267.5695202,41
1774419267.5884497,39
1774419267.6098158,37
1774419267.6215591,34
1774419267.6393216,32
1774419267.6562254,30
1774419267.6706188,29
1774419267.6865082,27
1774419267.7061558,26
1774419267.7200656,25
1774419267.7363527,24
1774419267.7521307,22
1774419267.7680657,21
1774419267.7902062,19
1774419267.8036494,19
1774419267.8179736,22
1774419267.835441,27
1774419267.8516421,36
1774419267.8684487,44
1774419267.891512,54
1774419267.906645,62
1774419267.91798,67
1774419267.9382555,68
1774419267.9580276,67
1774419267.968416,65
1774419267.9870744,62
1774419268.003652,60
1774419268.0180836,57
1774419268.0381663,56
1774419268.0547004,54
1774419268.07066,52
1774419268.086783,50
1774419268.1026292,49
1774419268.1236022,48
1774419268.1348083,47
1774419268.1577513,47
1774419268.1729906,46
1774419268.1876237,45
1774419268.2039495,43
1774419268.219675,41
1774419268.2414436,40
1774419268.251624,37
1774419268.2680776,34
1774419268.2848153,31
1774419268.3106227,29
1774419268.317864,27
1774419268.3398032,25
1774419268.3511329,23
1774419268.3681495,21
1774419268.3920205,20
1774419268.4066246,19
1774419268.4229174,18
1774419268.438816,17
1774419268.4524393,16
1774419268.4699016,15
1774419268.485726,13
1774419268.5016513,12
1774419268.524417,11
1774419268.5407565,10
1774419268.551886,10
1774419268.5682225,12
1774419268.5876696,18
1774419268.601821,27
1774419268.6196573,37
1774419268.6407278,46
1774419268.651641,55
1774419268.6681502,60
1774419268.6851254,62
1774419268.705002,61
1774419268.7179224,58
1774419268.7392023,55
1774419268.7548342,52
1774419268.7714279,50
1774419268.7883182,48
1774419268.801943,47
1774419268.8188787,45
1774419268.8354034,44
1774419268.8597176,43
1774419268.8717644,42
1774419268.8900168,41
1774419268.901544,41
1774419268.9237072,41
1774419268.9345574,40
1774419268.9562464,39
1774419268.9683516,37
1774419268.9859493,35
1774419269.0017426,33
1774419269.0194623,30
1774419269.035643,28
1774419269.0516307,25
1774419269.0681388,23
1774419269.0845082,22
1774419269.1024017,20
1774419269.1178217,18
1774419269.1370292,17
1774419269.1554742,16
1774419269.1736298,15
1774419269.1849697,14
1774419269.2011476,13
1774419269.220615,13
1774419269.2362292,12
1774419269.260007,11
1774419269.2717469,10
1774419269.2854998,9
1774419269.3037684,8
1774419269.323646,7
1774419269.3397,6
1774419269.3556323,5
1774419269.3712533,8
1774419269.3893497,13
1774419269.4081376,21
1774419269.420817,31
1774419269.4380887,40
1774419269.452711,50
1774419269.469281,56
1774419269.4854198,58
1774419269.5044856,57
1774419269.5202932,54
1774419269.5411153,50
1774419269.5512347,46
1774419269.5727673,43
1774419269.5845861,40
1774419269.6082616,39
1774419269.6187246,38
1774419269.634787,37
1774419269.660394,37
1774419269.6727161,37
1774419269.6863382,36
1774419269.7021644,37
1774419269.7194624,37
1774419269.7396212,36
1774419269.758528,35
1774419269.768092,33
1774419269.7916787,31
1774419269.8012638,29
1774419269.8196564,26
1774419269.8356373,24
1774419269.851641,22
1774419269.8734586,20
1774419269.885568,18
1774419269.9014487,17
1774419269.917917,16
1774419269.9357834,15
1774419269.951861,14
1774419269.970011,13
1774419269.9864883,12
1774419270.0052648,12
1774419270.0255506,11
1774419270.0351481,10
1774419270.0511515,9
1774419270.0755477,8
1774419270.089722,7
1774419270.104887,8
1774419270.126539,12
1774419270.1397088,19
1774419270.154298,27
1774419270.1689057,36
1774419270.190412,45
1774419270.2036448,51
1774419270.218283,54
1774419270.2348661,54
1774419270.2516928,51
1774419270.2686472,47
1774419270.2844367,42
1774419270.3031015,40
1774419270.3187208,37
1774419270.3351884,35
1774419270.3512383,34
1774419270.3787968,33
1774419270.394117,33
1774419270.4024804,33
1774419270.418482,34
1774419270.4359128,35
1774419270.4604366,35
1774419270.475656,35
1774419270.4888537,34
1774419270.5029182,32
1774419270.522741,30
1774419270.5387797,27
1774419270.5557246,25
1774419270.5703712,22
1774419270.5889065,20
1774419270.6036196,19
1774419270.6210527,17
1774419270.6345544,16
1774419270.6533399,15
1774419270.6702554,14
1774419270.6872559,14
1774419270.7023015,13
1774419270.7177072,12
1774419270.740185,12
1774419270.754352,11
1774419270.767781,10
1774419270.7875824,9
1774419270.810843,10
1774419270.8276892,14
1774419270.8378723,20
1774419270.8595972,28
1774419270.8756375,38
1774419270.8852987,46
1774419270.9034953,53
1774419270.920026,57
1774419270.934739,57
1774419270.9528108,54
1774419270.9680343,49
1774419270.9884195,45
1774419271.002999,41
1774419271.0195827,39
1774419271.0377839,37
1774419271.0526888,36
1774419271.0721228,36
1774419271.0845025,36
1774419271.102945,36
1774419271.1177433,36
1774419271.140657,37
1774419271.1536286,37
1774419271.168156,37
1774419271.1851,36
1774419271.2017643,35
1774419271.2232397,33
1774419271.243275,31
1774419271.2512226,28
1774419271.2762165,26
1774419271.291602,24
1774419271.3068147,22
1774419271.3243134,21
1774419271.334915,20
1774419271.3537197,19
1774419271.372071,18
1774419271.387615,17
1774419271.4016073,16
1774419271.4201612,15
1774419271.4362361,15
1774419271.4513445,14
1774419271.4789343,13
1774419271.484879,12
1774419271.5127203,12
1774419271.522123,13
1774419271.5398161,17
1774419271.5622234,23
1774419271.568179,32
1774419271.5948837,41
1774419271.6034772,51
1774419271.617896,58
1774419271.6429458,62
1774419271.659189,62
1774419271.6748707,60
1774419271.6910372,56
1774419271.7014346,51
1774419271.7236032,48
1774419271.7395961,45
1774419271.7552493,43
1774419271.769957,42
1774419271.7863538,41
1774419271.8032243,41
1774419271.821001,41
1774419271.835644,42
1774419271.8534012,42
1774419271.8760169,42
1774419271.8855019,42
1774419271.903216,42
1774419271.9203315,40
1774419271.9410503,39
1774419271.9526303,37
1774419271.9685326,35
1774419271.9862819,32
1774419272.0065463,30
1774419272.020545,28
1774419272.0394053,27
1774419272.0553331,25
1774419272.0677266,24
1774419272.087313,23
1774419272.1034672,23
1774419272.1184368,22
1774419272.1344333,21
1774419272.151306,21
1774419272.1712263,20
1774419272.1875825,19
1774419272.2081914,18
1774419272.219629,17
1774419272.2357068,16
1774419272.2528336,17
1774419272.2743125,20
1774419272.2851446,26
1774419272.3081126,34
1774419272.3213413,44
1774419272.337856,54
1774419272.3510046,62
1774419272.3743594,68
1774419272.3856077,69
1774419272.4115891,67
1774419272.4181964,63
1774419272.435652,58
1774419272.454286,54
1774419272.4705215,51
1774419272.4865613,49
1774419272.502499,47
1774419272.5198824,46
1774419272.534383,46
1774419272.5545642,47
1774419272.5716312,47
1774419272.5883427,48
1774419272.6015542,48
1774419272.6196308,49
1774419272.635624,48
1774419272.652401,47
1774419272.669119,44
1774419272.6849349,42
1774419272.702845,40
1774419272.7237036,37
1774419272.739036,35
1774419272.7521,32
1774419272.7699208,30
1774419272.794486,29
1774419272.8017683,27
1774419272.8203342,26
1774419272.8351157,25
1774419272.8570795,24
1774419272.868286,23
1774419272.8898118,22
1774419272.9062517,22
1774419272.9263551,21
1774419272.939066,20
1774419272.9556317,18
1774419272.9686527,17
1774419272.985521,18
1774419273.004212,20
1774419273.0207927,26
1774419273.0380468,34
1774419273.05162,43
1774419273.0676284,53
1774419273.0847294,61
1774419273.1061885,66
1774419273.1175303,67
1774419273.1351664,65
1774419273.1533566,61
1774419273.1714365,56
1774419273.1853049,52
1774419273.2034912,48
1774419273.219764,46
1774419273.2435873,44
1774419273.2566378,43
1774419273.2755337,43
1774419273.2922919,43
1774419273.3076258,44
1774419273.3183017,44
1774419273.334648,45
1774419273.3526056,45
1774419273.3679633,44
1774419273.3859513,43
1774419273.4040716,40
1774419273.4185846,39
1774419273.435376,36
1774419273.451642,33
1774419273.467655,31
1774419273.4850464,29
1774419273.5063777,27
1774419273.517798,26
1774419273.5400712,25
1774419273.5508392,24
1774419273.5677388,23
1774419273.5897763,22
1774419273.611581,21
1774419273.621365,20
1774419273.643634,20
1774419273.6594713,18
1774419273.6736443,17
1774419273.6928084,18
1774419273.7011478,20
1774419273.723584,25
1774419273.7395844,33
1774419273.750928,41
1774419273.770492,51
1774419273.7875996,59
1774419273.803612,64
1774419273.8209233,65
1774419273.8370585,64
1774419273.8516133,59
1774419273.8702295,54
1774419273.8858683,49
1774419273.9086535,45
1774419273.918055,42
1774419273.9342518,40
1774419273.95089,40
1774419273.9697292,40
1774419273.9845426,41
1774419274.0070376,43
1774419274.020133,44
1774419274.0424595,45
1774419274.0544355,45
1774419274.0676854,44
1774419274.0915134,43
1774419274.1083395,41
1774419274.1211855,39
1774419274.1342776,36
1774419274.1556082,33
1774419274.172166,31
1774419274.1882126,29
1774419274.2041178,28
1774419274.218834,27
1774419274.2356355,26
1774419274.2521248,25
1774419274.268346,24
1774419274.2842014,23
1774419274.301006,21
1774419274.3174994,20
1774419274.3412654,20
1774419274.3587685,22
1774419274.3780394,26
1774419274.3869388,34
1774419274.4011288,42
1774419274.4192846,52
1774419274.434966,61
1774419274.4572964,67
1774419274.4676805,69
1774419274.4923916,68
1774419274.5075827,65
1774419274.5239651,61
1774419274.539601,56
1774419274.5556228,53
1774419274.5723622,50
1774419274.5884402,47
1774419274.6037247,47
1774419274.61962,46
1774419274.6366727,47
1774419274.652355,47
1774419274.6683574,48
1774419274.6844273,49
1774419274.7033973,49
1774419274.7174687,48
1774419274.7343996,47
1774419274.7568624,45
1774419274.7694488,43
1774419274.7843456,40
1774419274.8106086,39
1774419274.8179848,37
1774419274.8375688,35
1774419274.8595865,33
1774419274.8735306,32
1774419274.891184,30
1774419274.902842,29
1774419274.9235747,28
1774419274.939622,27
1774419274.9511693,26
1774419274.968862,25
1774419274.9856286,25
1774419275.0028114,27
1774419275.0188773,32
1774419275.0353165,39
1774419275.0509453,48
1774419275.073469,58
1774419275.0852952,68
1774419275.1072936,74
1774419275.1184728,77
1774419275.1394625,76
1774419275.1524782,73
1774419275.1779168,69
1774419275.1841464,65
1774419275.2115889,61
1774419275.2186394,59
1774419275.2418456,57
1774419275.2541454,56
1774419275.2709696,55
1774419275.291578,55
1774419275.305346,56
1774419275.3218563,56
1774419275.3378723,56
1774419275.3540685,57
1774419275.369828,56
1774419275.390938,55
1774419275.4033659,53
1774419275.4185543,50
1774419275.437125,48
1774419275.4509597,45
1774419275.4676347,42
1774419275.4851444,40
1774419275.502519,39
1774419275.517518,38
1774419275.534791,36
1774419275.550753,35
1774419275.5744655,34
1774419275.586842,33
1774419275.6079097,31
1774419275.6233425,30
1774419275.639932,29
1774419275.655931,29
1774419275.678885,31
1774419275.6869545,37
1774419275.7028663,44
1774419275.7179441,54
1774419275.7395508,64
1774419275.7556052,73
1774419275.7729874,80
1774419275.7875814,82
1774419275.8036377,82
1774419275.8203835,79
1774419275.8383858,75
1774419275.851671,72
1774419275.8676283,70
1774419275.8846855,68
1774419275.9027238,66
1774419275.9173925,65
1774419275.9404407,65
1774419275.950807,65
1774419275.9688206,65
1774419275.9845371,66
1774419276.0046372,66
1774419276.0202656,66
1774419276.0365283,66
1774419276.0517988,64
1774419276.0688162,62
1774419276.084705,60
1774419276.1011198,57
1774419276.1210268,55
1774419276.138208,52
1774419276.1543777,50
1774419276.1710186,48
1774419276.1880045,47
1774419276.2116594,45
1774419276.228187,43
1774419276.2355795,42
1774419276.2516274,41
1774419276.2684693,40
1774419276.2875743,40
1774419276.3070924,38
1774419276.3174434,37
1774419276.3400815,36
1774419276.3507717,36
1774419276.3788037,39
1774419276.3867474,43
1774419276.4030983,52
1774419276.4229686,62
1774419276.4352028,72
1774419276.4511218,81
1774419276.4676955,87
1774419276.4916396,89
1774419276.505291,88
1774419276.5235815,85
1774419276.5396183,82
1774419276.5563145,79
1774419276.574937,76
1774419276.5865824,74
1774419276.6012285,73
1774419276.6185353,72
1774419276.6397176,71
1774419276.6516016,70
1774419276.667658,70
1774419276.6851661,70
1774419276.7052784,70
1774419276.717324,70
1774419276.7390876,69
1774419276.75324,67
1774419276.7742283,65
1774419276.7859528,62
1774419276.8010697,59
1774419276.817871,56
1774419276.8421113,53
1774419276.8557177,51
1774419276.8788555,48
1774419276.8928695,47
1774419276.9012477,45
1774419276.9216146,44
1774419276.9396331,42
1774419276.953941,41
1774419276.9687674,40
1774419276.98504,40
1774419277.0036778,39
1774419277.0197043,37
1774419277.0356073,35
1774419277.0527437,34
1774419277.0675914,34
1774419277.0843246,36
1774419277.1027548,41
1774419277.1180475,48
1774419277.1373281,58
1774419277.1527574,68
1774419277.1724749,77
1774419277.1864126,82
1774419277.2008436,84
1774419277.2250793,83
1774419277.2436314,80
1774419277.2516606,76
1774419277.2739973,73
1774419277.2880268,70
1774419277.3116503,68
1774419277.318784,66
1774419277.340642,65
1774419277.3532715,65
1774419277.371641,64
1774419277.3894756,64
1774419277.4030905,65
1774419277.4196396,65
1774419277.4356072,65
1774419277.4508839,64
1774419277.467626,62
1774419277.4844694,59
1774419277.5036724,56
1774419277.5174627,53
1774419277.535655,50
1774419277.551841,48
1774419277.5676525,46
1774419277.5876234,44
1774419277.6121547,42
1774419277.6242046,40
1774419277.641634,40
1774419277.6573806,38
1774419277.6709485,37
1774419277.6900969,36
1774419277.7027924,35
1774419277.7235756,34
1774419277.7391207,32
1774419277.7571943,31
1774419277.77163,30
1774419277.7861536,31
1774419277.8036375,35
1774419277.8198698,40
1774419277.838943,49
1774419277.851423,59
1774419277.8676312,68
1774419277.8845756,75
1774419277.9007878,79
1774419277.917466,80
1774419277.9410415,77
1774419277.950927,74
1774419277.9673696,71
1774419277.9863691,68
1774419278.0019987,65
1774419278.020699,63
1774419278.039312,62
1774419278.0586612,61
1774419278.0716534,61
1774419278.0844772,61
1774419278.107044,61
1774419278.122848,61
1774419278.142492,60
1774419278.153586,60
1774419278.1793852,58
1774419278.1870728,56
1774419278.2102475,53
1774419278.2193744,50
1774419278.2372844,48
1774419278.2506588,45
1774419278.2676454,43
1774419278.2865982,41
1774419278.3038821,40
1774419278.3173602,38
1774419278.3455946,37
1774419278.3506908,35
1774419278.3706245,34
1774419278.3925261,32
1774419278.4099958,31
1774419278.4208798,30
1774419278.4399467,29
1774419278.4511924,27
1774419278.4716294,26
1774419278.4859025,26
1774419278.5032194,28
1774419278.5192058,32
1774419278.5427787,40
1774419278.5511544,49
1774419278.5776532,59
1774419278.587817,68
1774419278.603618,75
1774419278.6183252,77
1774419278.6419983,77
1774419278.6507585,75
1774419278.6750004,72
1774419278.690503,69
1774419278.7076302,67
1774419278.7172499,64
1774419278.7402,63
1774419278.755442,62
1774419278.771219,61
1774419278.785856,60
1774419278.8048453,60
1774419278.8224628,60
1774419278.835095,60
1774419278.858976,59
1774419278.87158,59
1774419278.886,57
1774419278.906762,55
1774419278.9235666,53
1774419278.9396214,50
1774419278.9540963,47
1774419278.9683614,44
1774419278.984135,42
1774419279.001115,40
1774419279.0189633,38
1774419279.041091,36
1774419279.0549138,35
1774419279.068762,34
1774419279.0858123,32
1774419279.102346,31
1774419279.1172447,30
1774419279.134615,29
1774419279.1512134,28
1774419279.167324,26
1774419279.1855211,25
1774419279.2016182,23
1774419279.223023,23
1774419279.2402709,25
1774419279.2507963,30
1774419279.2742794,38
1774419279.2911599,46
1774419279.3032916,56
1774419279.3233933,66
1774419279.3393905,72
1774419279.352178,75
1774419279.3741667,75
1774419279.387572,72
1774419279.4035947,69
1774419279.4203,66
1774419279.4363995,64
1774419279.4537246,62
1774419279.4746296,60
1774419279.4848127,59
1774419279.501907,58
1774419279.5178936,57
1774419279.5473356,57
1774419279.550508,57
1774419279.5673726,57
1774419279.5867171,56
1774419279.6075165,55
1774419279.6172342,54
1774419279.645474,51
1774419279.6544962,49
1774419279.6680355,46
1774419279.690506,43
1774419279.7028375,40
1774419279.7254884,38
1774419279.7367501,36
1774419279.7555897,34
1774419279.773462,32
1774419279.7893157,30
1774419279.803579,29
1774419279.8196023,28
1774419279.8345108,27
1774419279.851636,26
1774419279.8676279,24
1774419279.8848221,23
1774419279.9092033,22
1774419279.9172564,20
1774419279.9433653,19
1774419279.9524727,18
1774419279.968432,20
1774419279.9853098,24
1774419280.0034118,31
1774419280.0269415,40
1774419280.036642,49
1774419280.052615,59
1774419280.069953,65
1774419280.083829,69
1774419280.1050336,69
1774419280.123581,66
1774419280.1350129,63
1774419280.1538446,60
1774419280.1701455,57
1774419280.1859798,55
1774419280.203383,53
1774419280.2186465,52
1774419280.234636,51
1774419280.250584,51
1774419280.2736053,50
1774419280.2841454,50
1774419280.3092868,50
1774419280.3178465,50
1774419280.3382776,49
1774419280.3555477,48
1774419280.368454,46
1774419280.390854,43
1774419280.4033158,40
1774419280.4240727,38
1774419280.4425433,35
1774419280.451946,33
1774419280.4745805,31
1774419280.4854772,29
1774419280.5046859,27
1774419280.519434,25
1774419280.537677,24
1774419280.554559,23
1774419280.5706596,22
1774419280.5851424,20
1774419280.6029391,19
1774419280.618657,18
1774419280.63463,16
1774419280.650697,16
1774419280.6676164,17
1774419280.684372,21
1774419280.7123046,28
1774419280.7171462,37
1774419280.7396252,45
1774419280.760971,54
1774419280.7734902,60
1774419280.7859902,63
1774419280.8016305,63
1774419280.8214662,60
1774419280.841805,57
1774419280.8514674,53
1774419280.8691525,50
1774419280.8921258,48
1774419280.9060798,46
1774419280.9220154,45
1774419280.939574,45
1774419280.9516459,44
1774419280.9677167,44
1774419280.986111,45
1774419281.0021732,45
1774419281.019658,45
1774419281.043812,44
1774419281.0551162,42
1774419281.080105,40
1774419281.0853965,38
1774419281.108181,35
1774419281.1171842,32
1774419281.1385531,30
1774419281.1512585,28
1774419281.167905,26
1774419281.1841838,24
1774419281.2082798,23
1774419281.2224216,22
1774419281.2402735,21
1774419281.2514389,20
1774419281.275587,19
1774419281.294453,18
1774419281.3027236,17
1774419281.3192098,16
1774419281.3354948,14
1774419281.350887,14
1774419281.3734894,16
1774419281.3873184,20
1774419281.408975,27
1774419281.4182062,36
1774419281.445206,45
1774419281.451554,54
1774419281.4730766,61
1774419281.4845023,64
1774419281.503806,64
1774419281.5172045,62
1774419281.5397906,58
1774419281.5505726,55
1774419281.5679626,52
1774419281.5909033,50
1774419281.603681,48
1774419281.620776,47
1774419281.639328,47
1774419281.653486,46
1774419281.6712005,46
1774419281.6859481,47
1774419281.7021475,47
1774419281.724194,47
1774419281.7417102,46
1774419281.7568407,45
1774419281.7701545,43
1774419281.784376,41
1774419281.8032632,39
1774419281.8206716,37
1774419281.8416526,34
1774419281.8516665,32
1774419281.8676555,30
1774419281.8846543,29
1774419281.9054482,27
1774419281.917057,26
1774419281.9349027,25
1774419281.9537647,24
1774419281.9681692,23
1774419281.984902,21
1774419282.0047174,20
1774419282.020677,19
1774419282.0390773,18
1774419282.055991,18
1774419282.0787458,20
1774419282.0847168,25
1774419282.100729,32
1774419282.1251533,41
1774419282.1402643,51
1774419282.151688,60
1774419282.1709902,67
1774419282.1875548,69
1774419282.2029314,69
1774419282.2195973,67
1774419282.2349548,64
1774419282.2516072,61
1774419282.2685318,59
1774419282.2846556,57
1774419282.3070366,55
1774419282.3170407,54
1774419282.3411188,53
1774419282.3512425,52
1774419282.3721554,52
1774419282.388307,52
1774419282.409509,52
1774419282.423139,52
1774419282.4361365,51
1774419282.4522514,49
1774419282.468191,47
1774419282.4842064,45
1774419282.500726,42
1774419282.5173936,40
1774419282.5359814,38
1774419282.5548708,36
1774419282.5716221,34
1774419282.5876148,33
1774419282.6035988,31
1774419282.620755,30
1774419282.6409807,28
1774419282.6523252,27
1774419282.6675358,26
1774419282.6846104,24
1774419282.7122838,23
1774419282.7169995,24
1774419282.7413647,26
1774419282.755142,32
1774419282.7680645,39
1774419282.7839358,48
1774419282.8022745,57
1774419282.8187814,66
1774419282.834766,71
1774419282.8527775,72
1774419282.875558,72
1774419282.8839316,69
1774419282.9055762,66
1774419282.9243703,64
1774419282.9349766,61
1774419282.9523005,59
1774419282.9689085,58
1774419282.9853146,57
1774419283.003318,55
1774419283.0195475,54
1774419283.035617,54
1774419283.0531187,53
1774419283.067609,53
1774419283.084398,52
1774419283.1006944,51
1774419283.1169884,49
1774419283.1336992,47
1774419283.152271,44
1774419283.1677523,42
1774419283.1839097,40
1774419283.207357,38
1774419283.2216818,36
1774419283.2368605,34
1774419283.2523785,32
1774419283.2724106,30
1774419283.293026,28
1774419283.305379,27
1774419283.3243756,25
1774419283.3347268,23
1774419283.3504703,23
1774419283.3722205,24
1774419283.3875787,29
1774419283.4060004,36
1774419283.4202867,44
1774419283.4353373,53
1774419283.4527524,62
1774419283.4706962,67
1774419283.4840517,70
1774419283.502856,70
1774419283.5171382,68
1774419283.545444,65
1774419283.5509384,63
1774419283.567314,60
1774419283.5885801,58
1774419283.6052463,57
1774419283.6229186,55
1774419283.6429284,53
1774419283.6618142,52
1774419283.6670692,51
1774419283.6879714,51
1774419283.7105334,50
1774419283.7176247,50
1774419283.739592,49
1774419283.755552,47
1774419283.7715986,44
1774419283.786554,42
1774419283.801818,40
1774419283.8195524,38
1774419283.8355687,35
1774419283.8531451,33
1774419283.8676314,31
1774419283.8848493,29
1774419283.9004536,27
1774419283.9169297,26
1774419283.9412901,25
1774419283.9505985,24
1774419283.9688969,22
1774419283.985832,21
1774419284.008522,20
1774419284.0227861,20
1774419284.0370414,23
1774419284.051923,29
1774419284.073355,37
1774419284.088274,46
1774419284.1042747,56
1774419284.1203258,63
1774419284.1373937,68
1774419284.152306,70
1774419284.1715837,69
1774419284.1886754,67
1774419284.2027833,64
1774419284.222247,62
1774419284.2355897,60
1774419284.2519026,59
1774419284.2676003,57
1774419284.2881918,55
1774419284.309526,53
1774419284.316921,52
1774419284.3362794,51
1774419284.3584778,51
1774419284.3682353,50
1774419284.3889198,49
1774419284.4012618,48
1774419284.4204655,45
1774419284.436141,43
1774419284.4524713,40
1774419284.4712758,38
1774419284.4875772,35
1774419284.5115445,33
1774419284.5188093,30
1774419284.5341883,29
1774419284.5508103,27
1774419284.5716112,25
1774419284.586902,24
1774419284.6035702,23
1774419284.6203656,21
1774419284.6355996,20
1774419284.651669,19
1774419284.6725855,18
1774419284.6841633,17
1774419284.7033236,16
1774419284.7170665,14
1774419284.73392,13
1774419284.7519717,12
1774419284.7702682,15
1774419284.7853825,20
1774419284.8033285,28
1774419284.8179061,37
1774419284.8373387,46
1774419284.8550985,55
1774419284.874242,60
1774419284.8951578,62
1774419284.901098,61
1774419284.916953,59
1774419284.9353209,56
1774419284.9514177,53
1774419284.9674406,51
1774419284.9844198,49
1774419285.0035915,48
1774419285.0170653,47
1774419285.033984,46
1774419285.0515487,45
1774419285.0670722,44
1774419285.083585,44
1774419285.1038935,44
1774419285.1173327,43
1774419285.1439168,42
1774419285.150344,40
1774419285.1741762,38
1774419285.192979,36
1774419285.2107704,33
1774419285.2263668,30
1774419285.2382371,28
1774419285.2513742,26
1774419285.276229,24
1774419285.2916737,23
1774419285.3076048,21
1774419285.3190606,20
1774419285.3392215,19
1774419285.3558257,18
1774419285.3715599,17
1774419285.387558,16
1774419285.4040732,15
1774419285.4195514,14
1774419285.4410105,13
1774419285.4516535,12
1774419285.4670517,12
1774419285.4835875,14
1774419285.5027492,19
1774419285.5168557,27
1774419285.5379682,36
1774419285.5547771,44
1774419285.5759966,52
1774419285.5910223,56
1774419285.6100688,58
1774419285.617471,57
1774419285.6419144,54
1774419285.6510286,51
1774419285.6687539,48
1774419285.6901371,45
1774419285.7005777,43
1774419285.721067,42
1774419285.7346108,41
1774419285.7531323,40
1774419285.768821,40
1774419285.7850924,40
1774419285.8025904,40
1774419285.8170636,40
1774419285.842823,40
1774419285.8523126,38
1774419285.8675895,36
1774419285.8835819,33
1774419285.9043036,31
1774419285.9169426,28
1774419285.9450788,26
1774419285.9501686,24
1774419285.9687557,22
1774419285.9859295,21
1774419286.0031269,20
1774419286.017948,19
1774419286.0455465,18
1774419286.0561998,17
1774419286.0722098,16
1774419286.0872617,15
1774419286.1016202,14
1774419286.1178954,12
1774419286.1362226,12
1774419286.1526093,14
1774419286.1682916,18
1774419286.1842053,24
1774419286.2004032,33
1774419286.2203472,41
1774419286.2354026,49
1774419286.251552,55
1774419286.2676105,58
1774419286.2848294,58
1774419286.3046434,55
1774419286.3168721,52
1774419286.336061,49
1774419286.3503602,47
1774419286.3674195,45
1774419286.3847578,43
1774419286.4070115,41
1774419286.4187624,40
1774419286.4371805,40
1774419286.4544446,39
1774419286.4705348,39
1774419286.4846652,39
1774419286.5017867,39
1774419286.5176687,38
1774419286.5341554,37
1774419286.5510068,35
1774419286.5700681,33
1774419286.5875876,31
1774419286.6036472,29
1774419286.6207108,26
1774419286.6355581,24
1774419286.6524236,22
1774419286.673592,21
1774419286.684188,19
1774419286.7010224,18
1774419286.717321,17
1774419286.7386158,16
1774419286.7548397,16
1774419286.7691116,15
1774419286.7858524,14
1774419286.8026295,13
1774419286.8178878,12
1774419286.8346798,11
1774419286.8578708,10
1774419286.8695247,11
1774419286.891642,15
1774419286.9039931,22
1774419286.9208877,30
1774419286.9340053,40
1774419286.9505782,49
1774419286.9670749,55
1774419286.9845822,59
1774419287.0036497,60
1774419287.018901,58
1774419287.0455308,55
1774419287.0527172,52
1774419287.0731802,50
1774419287.0835876,48
1774419287.1043384,47
1774419287.1168265,46
1774419287.1377115,45
1774419287.1514637,44
1774419287.167519,43
1774419287.1835597,43
1774419287.200607,42
1774419287.220307,42
1774419287.2415714,41
1774419287.253531,40
1774419287.2678707,39
1774419287.2904124,37
1774419287.3014271,34
1774419287.3168685,32
1774419287.3385189,29
1774419287.3555515,27
1774419287.3710423,25
1774419287.394045,23
1774419287.4028366,22
1774419287.41858,21
1774419287.4336352,20
1774419287.4514546,19
1774419287.4782076,18
1774419287.483592,17
1774419287.5052078,16
1774419287.5168488,15
1774419287.5381706,14
1774419287.5560372,13
1774419287.56747,12
1774419287.583909,10
1774419287.6019313,9
1774419287.624193,8
1774419287.6358473,7
1774419287.6595557,8
1774419287.6692004,12
1774419287.6893044,19
1774419287.707559,28
1774419287.7188544,38
1774419287.735678,47
1774419287.756852,55
1774419287.768197,59
1774419287.7841024,59
1774419287.800398,57
1774419287.8185644,53
1774419287.835542,50
1774419287.8522773,47
1774419287.8675897,46
1774419287.8835907,44
1774419287.9035876,43
1774419287.9189227,42
1774419287.9366574,42
1774419287.950099,41
1774419287.967203,41
1774419287.9841774,40
1774419288.0008366,40
1774419288.017354,40
1774419288.03338,39
1774419288.0529184,37
1774419288.0687246,35
1774419288.0908086,32
1774419288.107536,29
1774419288.118033,27
1774419288.13417,24
1774419288.1519818,22
1774419288.1733272,20
1774419288.1877499,19
1774419288.2002296,17
1774419288.2229779,16
1774419288.2355518,15
1774419288.2515714,14
1774419288.2675931,13
1774419288.2880266,12
1774419288.301688,11
1774419288.3167665,10
1774419288.3349857,10
1774419288.3501024,9
1774419288.3699305,8
1774419288.3878725,7
1774419288.4047284,6
1774419288.4208615,5
1774419288.436713,3
1774419288.4550946,2
1774419288.467111,2
1774419288.490866,5
1774419288.5074701,10
1774419288.522229,19
1774419288.533725,29
1774419288.5556543,39
1774419288.5686393,47
1774419288.5875902,52
1774419288.601371,54
1774419288.6211774,52
1774419288.6421332,49
1774419288.651546,44
1774419288.6732025,41
1774419288.6837678,38
1774419288.7055216,36
1774419288.7215595,35
1774419288.7348506,35
1774419288.750043,34
1774419288.767885,34
1774419288.785652,34
1774419288.8004608,35
1774419288.8182044,35
1774419288.8335972,35
1774419288.8533301,34
1774419288.8766797,33
1774419288.8836863,31
1774419288.9075656,29
1774419288.9236343,26
1774419288.9352474,24
1774419288.956313,22
1774419288.967623,20
1774419288.9841716,18
1774419289.0081365,17
1774419289.017786,16
1774419289.035072,14
1774419289.051569,13
1774419289.0683694,13
1774419289.0845048,12
1774419289.1034284,11
1774419289.1168838,11
1774419289.1335435,10
1774419289.1524565,9
1774419289.1685069,8
1774419289.186515,8
1774419289.204658,8
1774419289.2181294,11
1774419289.2344568,16
1774419289.2512877,24
1774419289.2687976,33
1774419289.2843502,41
1774419289.302752,49
1774419289.31832,53
1774419289.3387733,54
1774419289.355537,51
1774419289.3669443,48
1774419289.3875895,43
1774419289.410107,40
1774419289.417313,37
1774419289.4356093,35
1774419289.4526098,33
1774419289.47201,32
1774419289.4835844,32
1774419289.5039892,32
1774419289.516744,33
1774419289.5360286,34
1774419289.550363,35
1774419289.5686102,35
1774419289.584041,34
1774419289.6038327,32
1774419289.625508,30
1774419289.6409724,27
1774419289.6513267,25
1774419289.6668508,23
1774419289.6888692,21
1774419289.7055318,19
1774419289.7235596,17
1774419289.738113,16
1774419289.7555723,15
1774419289.7716985,14
1774419289.783753,13
1774419289.8016782,12
1774419289.8195846,11
1774419289.839967,11
1774419289.852261,10
1774419289.8687334,10
1774419289.8835685,9
1774419289.9040296,8
1774419289.91664,9
1774419289.9409716,11
1774419289.9524393,17
1774419289.9669914,25
1774419289.9841495,34
1774419290.002513,43
1774419290.0195115,52
1774419290.0409718,57
1774419290.0562983,58
1774419290.0717797,57
1774419290.0867317,54
1774419290.1001084,50
1774419290.1260345,46
1774419290.1395645,43
1774419290.1549568,41
1774419290.171573,40
1774419290.1867776,40
1774419290.2021387,40
1774419290.2195446,40
1774419290.2379634,40
1774419290.25078,40
1774419290.2710037,41
1774419290.2843595,41
1774419290.302121,40
1774419290.3183384,40
1774419290.3346865,38
1774419290.349969,36
1774419290.367145,33
1774419290.3883102,31
1774419290.4063692,29
1774419290.4212136,27
1774419290.436488,25
1774419290.4549522,24
1774419290.4718328,22
1774419290.48543,21
1774419290.5088081,20
1774419290.521007,19
1774419290.539558,18
1774419290.5568743,18
1774419290.5715437,17
1774419290.5875976,16
1774419290.6001954,15
1774419290.6195657,14
1774419290.6355891,14
1774419290.6516058,17
1774419290.6689663,23
1774419290.6850805,31
1774419290.700902,40
1774419290.7167776,51
1774419290.7335446,59
1774419290.7501245,64
1774419290.7782025,66
1774419290.7838972,65
1774419290.801883,62
1774419290.8222861,58
1774419290.840417,55
1774419290.856496,52
1774419290.8682113,51
1774419290.8887942,50
1774419290.9075494,50
1774419290.9210403,50
1774419290.9396522,50
1774419290.955538,50
1774419290.9676464,51
1774419290.9862537,51
1774419291.003584,51
1774419291.017174,51
1774419291.035609,49
1774419291.0544202,47
1774419291.0673423,45
1774419291.0835657,42
1774419291.1153889,40
1774419291.1167738,38
1774419291.1339555,36
1774419291.1498842,34
1774419291.174093,32
1774419291.1874352,30
1774419291.2113519,29
1774419291.2167463,28
1774419291.243389,28
1774419291.2555702,27
1774419291.2719982,26
1774419291.2873006,25
1774419291.3075488,24
1774419291.3209193,23
1774419291.3380744,22
1774419291.350921,22
1774419291.3690894,24
1774419291.3859658,29
1774419291.4021344,36
1774419291.4195683,45
1774419291.4348223,55
1774419291.4500399,64
1774419291.4721544,71
1774419291.4838498,74
1774419291.5111077,73
1774419291.5167375,71
1774419291.542843,67
1774419291.55076,64
1774419291.5667655,61
1774419291.5843132,58
1774419291.6099067,57
1774419291.6218128,57
1774419291.6420262,57
1774419291.6579502,57
1774419291.6740584,57
1774419291.687374,58
1774419291.7076275,59
1774419291.7219875,59
1774419291.7412076,58
1774419291.7530117,57
1774419291.7679365,54
1774419291.783967,52
1774419291.8028033,49
1774419291.8206387,46
1774419291.8355632,44
1774419291.8499887,41
1774419291.8724082,40
1774419291.8886387,39
1774419291.90826,37
1774419291.9167767,36
1774419291.9361594,35
1774419291.9499087,34
1774419291.9689581,33
1774419291.9844158,32
1774419292.0073466,30
1774419292.0182052,29
1774419292.039397,28
1774419292.05222,29
1774419292.0706768,32
1774419292.0863595,37
1774419292.1008813,44
1774419292.1176982,54
1774419292.1413639,64
1774419292.1512315,72
1774419292.1699903,77
1774419292.1884644,78
1774419292.2025099,77
1774419292.2203147,73
1774419292.2367756,70
1774419292.2526734,66
1774419292.26753,63
1774419292.28355,61
1774419292.3077903,60
1774419292.3187542,59
1774419292.3365574,59
1774419292.357581,60
1774419292.371521,60
1774419292.383967,61
1774419292.4008822,62
1774419292.4171524,62
1774419292.435631,60
1774419292.4533293,59
1774419292.467139,56
1774419292.4833252,53
1774419292.5005393,51
1774419292.5200071,48
1774419292.5401597,46
1774419292.5555754,44
1774419292.5677705,42
1774419292.5881577,41
1774419292.604819,40
1774419292.6195426,39
1774419292.6337855,38
1774419292.6514804,37
1774419292.6678147,35
1774419292.6835601,34
1774419292.702432,33
1774419292.7172031,33
1774419292.7336707,36
1774419292.7499614,40
1774419292.770173,48
1774419292.7884903,58
1774419292.8011653,68
1774419292.8171616,76
1774419292.8333354,81
1774419292.8550456,83
1774419292.8755698,82
1774419292.8863406,79
1774419292.904262,76
1774419292.9228067,73
1774419292.9431484,70
1774419292.955948,68
1774419292.9675295,67
1774419292.9856524,67
1774419293.0043256,66
1774419293.0195742,66
1774419293.0355434,66
1774419293.0515811,66
1774419293.072694,67
1774419293.0835562,66
1774419293.1003695,65
1774419293.1171825,63
1774419293.1335192,60
1774419293.1527152,57
1774419293.1687038,54
1774419293.1836329,52
1774419293.200715,49
1774419293.2175937,46
1774419293.234674,44
1774419293.254396,42
1774419293.2674031,41
1774419293.2848117,40
1774419293.307563,39
1774419293.316541,37
1774419293.3356197,36
1774419293.3555522,35
1774419293.371538,33
1774419293.3885834,32
1774419293.4035716,31
1774419293.4174366,31
1774419293.4354599,33
1774419293.4547184,38
1774419293.4675882,45
1774419293.4870343,55
1774419293.5036056,65
1774419293.5167532,74
1774419293.5352864,81
1774419293.5500314,84
1774419293.567161,84
1774419293.5832822,82
1774419293.605746,79
1774419293.6219177,77
1774419293.6435702,74
1774419293.6556118,73
1774419293.673686,72
1774419293.6883671,70
1774419293.7024004,69
1774419293.7260237,68
1774419293.7336595,68
1774419293.7531214,67
1774419293.7715268,66
1774419293.7864902,66
1774419293.8035574,65
1774419293.8193066,63
1774419293.8371358,61
1774419293.852341,58
1774419293.8704953,55
1774419293.8853176,52
1774419293.9022012,49
1774419293.9166799,47
1774419293.935425,44
1774419293.9497082,42
1774419293.9691744,40
1774419293.9836068,39
1774419294.0011175,38
1774419294.0228324,37
1774419294.0418484,35
1774419294.0583942,34
1774419294.0675297,33
1774419294.0909843,32
1774419294.1071453,30
1774419294.1180112,29
1774419294.1381364,27
1774419294.1543283,25
1774419294.1687307,25
1774419294.18752,26
1774419294.2014532,31
1774419294.2181218,38
1774419294.2341983,47
1774419294.250215,57
1774419294.2675714,66
1774419294.2835581,73
1774419294.3068888,76
1774419294.3167253,76
1774419294.3381348,74
1774419294.3497112,71
1774419294.373564,68
1774419294.385914,66
1774419294.4036279,64
1774419294.4165585,63
1774419294.4388864,61
1774419294.452323,60
1774419294.4688127,58
1774419294.487455,57
1774419294.5036755,57
1774419294.516757,56
1774419294.5354779,56
1774419294.5498323,55
1774419294.5677664,53
1774419294.5838134,51
1774419294.6045845,48
1774419294.6199324,45
1774419294.6414814,42
1774419294.6502936,40
1774419294.6675766,37
1774419294.6843011,35
1774419294.7114496,33
1774419294.716454,31
1774419294.7378037,30
1774419294.7498398,28
1774419294.7744257,27
1774419294.79058,26
1774419294.8103628,25
1774419294.8207688,24
1774419294.8381915,23
1774419294.8586664,22
1774419294.8703053,21
1774419294.8912644,19
1774419294.9006145,18
1774419294.9209323,16
1774419294.9339027,15
1774419294.9508262,15
1774419294.9664998,18
1774419294.9874604,25
1774419294.999955,33
1774419295.020266,43
1774419295.034426,53
1774419295.0515473,61
1774419295.0675223,66
1774419295.0845983,68
1774419295.1058831,66
1774419295.1173139,63
1774419295.1354468,60
1774419295.1498163,57
1774419295.1678622,54
1774419295.1888752,52
1774419295.206201,51
1774419295.2185345,50
1774419295.2368305,50
1774419295.2530005,50
1774419295.268045,50
1774419295.2838068,51
1774419295.2998466,51
1774419295.3259914,50
1774419295.3354652,49
1774419295.355517,47
1774419295.3712606,45
1774419295.3886833,42
1774419295.4025714,40
1774419295.4195595,38
1774419295.4355648,36
1774419295.4515257,34
1774419295.475167,32
1774419295.4840164,30
1774419295.5086498,29
1774419295.5166736,28
1774419295.538878,27
1774419295.5497582,26
1774419295.5711231,25
1774419295.587021,24
1774419295.6044521,23
1774419295.6179228,21
1774419295.6330502,20
1774419295.6537418,20
1774419295.6735551,22
1774419295.6868873,26
1774419295.703056,33
1774419295.7209697,41
1774419295.739097,50
1774419295.7598565,57
1774419295.7702086,62
1774419295.7862003,64
1774419295.7997506,63
1774419295.8176668,61
1774419295.8443773,57
1774419295.8510387,54
1774419295.8675654,51
1774419295.8862748,48
1774419295.9038389,47
1774419295.9163387,46
1774419295.9360654,45
1774419295.949791,45
1774419295.967038,46
1774419295.9833994,47
1774419295.9997778,47
1774419296.0219758,47
1774419296.0356817,46
1774419296.0505989,44
1774419296.0697904,42
1774419296.0899305,40
1774419296.0997946,37
1774419296.1193671,35
1774419296.1417065,33
1774419296.155856,31
1774419296.1724107,29
1774419296.184155,28
1774419296.203691,26
1774419296.219509,25
1774419296.2386513,24
1774419296.2515752,22
1774419296.2678113,21
1774419296.2834542,20
1774419296.304906,19
1774419296.316313,19
1774419296.3338187,22
1774419296.3495996,27
1774419296.3739934,35
1774419296.38814,43
1774419296.4042287,52
1774419296.4168296,60
1774419296.4422214,65
1774419296.4516773,67
1774419296.47109,66
1774419296.4938686,63
1774419296.5040069,59
1774419296.5182421,56
1774419296.536863,54
1774419296.557347,52
1774419296.5671272,50
1774419296.5832324,49
1774419296.604616,49
1774419296.6196096,48
1774419296.635935,48
1774419296.6522584,49
1774419296.6709235,48
1774419296.6835637,47
1774419296.7016606,46
1774419296.7164004,44
1774419296.7382019,42
1774419296.749795,40
1774419296.7707198,37
1774419296.7838714,35
1774419296.8032393,32
1774419296.819529,30
1774419296.8428202,28
1774419296.854498,27
1774419296.870577,25
1774419296.8893898,24
1774419296.9020865,23
1774419296.921883,21
1774419296.9385536,20
1774419296.9561777,18
1774419296.9667969,17
1774419296.9835036,18
1774419297.0035627,21
1774419297.0188997,26
1774419297.0336814,35
1774419297.0522482,44
1774419297.0676234,54
1774419297.08421,62
1774419297.1031466,66
1774419297.1162593,68
1774419297.1368978,66
1774419297.156426,64
1774419297.1685247,61
1774419297.1831226,58
1774419297.2063212,56
1774419297.2167315,55
1774419297.2441983,53
1774419297.2552779,52
1774419297.2717838,50
1774419297.284433,49
1774419297.303169,48
1774419297.3188393,47
1774419297.3378181,47
1774419297.349984,46
1774419297.371228,44
1774419297.3841422,42
1774419297.4035165,40
1774419297.4195223,37
1774419297.4353104,34
1774419297.45128,31
1774419297.4674191,28
1774419297.4829295,26
1774419297.5056088,24
1774419297.5169601,22
1774419297.5329268,20
1774419297.5497198,19
1774419297.566416,18
1774419297.5836504,17
1774419297.6034741,15
1774419297.6191587,14
1774419297.6401217,13
1774419297.655964,11
1774419297.6708386,11
1774419297.690188,13
1774419297.7062085,18
1774419297.719065,25
1774419297.7341528,35
1774419297.7542355,44
1774419297.7683454,52
1774419297.7863872,58
1774419297.8035092,60
1774419297.8173556,60
1774419297.8343549,57
1774419297.85052,55
1774419297.8675292,52
1774419297.8829415,50
1774419297.9022653,49
1774419297.9163654,47
1774419297.9454591,46
1774419297.9498627,45
1774419297.9663737,43
1774419297.9832397,42
1774419298.0002472,41
1774419298.0176492,40
1774419298.0387378,40
1774419298.0574074,40
1774419298.0723386,39
1774419298.0853693,36
1774419298.1043406,34
1774419298.120382,31
1774419298.1329172,29
1774419298.156708,26
1774419298.169545,24
1774419298.1845903,22
1774419298.2003574,20
1774419298.220262,18
1774419298.236754,17
1774419298.252323,16
1774419298.2726865,15
1774419298.284266,14
1774419298.3089266,13
1774419298.3168373,11
1774419298.3408191,10
1774419298.3534997,9
1774419298.3758576,8
1774419298.3829243,9
1774419298.400469,13
1774419298.4210377,19
1774419298.4363048,27
1774419298.4543352,37
1774419298.4718227,45
1774419298.4855351,51
1774419298.503785,55
1774419298.5228553,54
1774419298.535767,52
1774419298.5519407,49
1774419298.567792,45
1774419298.5838637,43
1774419298.6012297,41
1774419298.619513,40
1774419298.6363218,39
1774419298.650194,38
1774419298.6675665,37
1774419298.6850333,37
1774419298.699633,37
1774419298.719227,37
1774419298.736449,36
1774419298.753472,35
1774419298.7681222,34
1774419298.7837887,32
1774419298.8012457,29
1774419298.8213787,27
1774419298.8426294,24
1774419298.8554204,22
1774419298.8721857,20
1774419298.8908875,19
1774419298.9005892,17
1774419298.923515,16
1774419298.9362166,15
1774419298.9515114,13
1774419298.9681475,13
1774419298.9837742,12
1774419299.0009997,11
1774419299.0195444,10
1774419299.0355146,9
1774419299.0539773,9
1774419299.067542,9
1774419299.0835595,11
1774419299.0995479,16
1774419299.1163125,24
1774419299.1356618,32
1774419299.1507864,41
1774419299.1671739,48
1774419299.1838336,53
1774419299.2028122,54
1774419299.2179997,53
1774419299.2361295,50
1774419299.2499962,46
1774419299.2730808,43
1774419299.291744,40
1774419299.3003418,39
1774419299.3217583,37
1774419299.3334742,36
1774419299.3551905,36
1774419299.3715558,35
1774419299.387602,35
1774419299.4035144,35
1774419299.4195006,35
1774419299.4334393,35
1774419299.4523852,34
1774419299.4675527,32
1774419299.4858456,30
1774419299.4995399,28
1774419299.517003,25
1774419299.541425,23
1774419299.5499284,21
1774419299.571386,19
1774419299.5845144,18
1774419299.6006265,17
1774419299.6165836,16
1774419299.6330686,15
1774419299.6562567,15
1774419299.6674154,14
1774419299.6901443,13
1774419299.708537,12
1774419299.7201657,11
1774419299.737069,10
1774419299.754028,10
1774419299.7664082,12
1774419299.7843428,16
1774419299.8035219,23
1774419299.8205905,32
1774419299.8396163,41
1774419299.851518,49
1774419299.866412,55
1774419299.8835437,58
1774419299.9063683,58
1774419299.9162076,55
1774419299.9338188,52
1774419299.9496546,50
1774419299.9666238,47
1774419299.983147,46
1774419300.0046878,45
1774419300.0181692,44
1774419300.0347364,43
1774419300.0533473,41
1774419300.0664637,40
1774419300.0860822,40
1774419300.107561,40
1774419300.1180472,40
1774419300.1392894,39
1774419300.152197,38
1774419300.167127,36
1774419300.1900804,34
1774419300.2013278,31
1774419300.2188976,29
1774419300.2381616,27
1774419300.2495744,24
1774419300.2695606,22
1774419300.2856243,21
1774419300.3016562,19
1774419300.3168244,18
1774419300.336658,17
1774419300.352175,16
1774419300.3673694,16
1774419300.3895123,15
1774419300.411521,14
1774419300.419289,13
1774419300.440194,12
1774419300.4499564,10
1774419300.4699044,9
1774419300.4926262,9
1774419300.504017,13
1774419300.5178332,19
1774419300.537622,28
1774419300.5555196,38
1774419300.5692067,47
1774419300.587503,54
1774419300.603592,58
1774419300.616277,59
1774419300.635558,57
1774419300.651505,54
1774419300.673287,50
1774419300.6843345,48
1774419300.6995618,46
1774419300.7164564,45
1774419300.7330186,44
1774419300.7565365,43
1774419300.7696397,42
1774419300.784777,41
1774419300.807892,41
1774419300.8240116,41
1774419300.8375382,40
1774419300.8589592,40
1774419300.8746688,40
1774419300.8891537,39
1774419300.9071186,37
1774419300.923882,34
1774419300.9352095,32
1774419300.950971,29
1774419300.9677904,27
1774419300.9842455,25
1774419301.0024178,23
1774419301.0177226,22
1774419301.0355022,20
1774419301.0506375,19
1774419301.066603,18
1774419301.083131,17
1774419301.0995607,16
1774419301.1208255,15
1774419301.132668,14
1774419301.1493182,14
1774419301.1785433,12
1774419301.1886454,11
1774419301.2098694,11
1774419301.2164721,12
1774419301.2425103,16
1774419301.250145,23
1774419301.2745657,32
1774419301.2871802,41
1774419301.3006232,50
1774419301.3211627,56
1774419301.3370786,59
1774419301.3501902,58
1774419301.3691275,54
1774419301.384949,50
1774419301.4023793,46
1774419301.4195545,43
1774419301.4331028,41
1774419301.4494128,40
1774419301.467448,39
1774419301.4840722,38
1774419301.5015006,38
1774419301.516636,38
1774419301.5335178,39
1774419301.5493312,39
1774419301.5663002,39
1774419301.582638,38
1774419301.6065774,37
1774419301.6169293,35
1774419301.6406047,33
1774419301.6531212,30
1774419301.6673787,28
1774419301.690581,25
1774419301.7046552,23
1774419301.7169242,22
1774419301.7395,20
1774419301.752615,19
1774419301.7666962,18
1774419301.7875042,17
1774419301.8009613,17
1774419301.8167446,16
1774419301.8329751,15
1774419301.8515558,14
1774419301.8675494,13
1774419301.8835282,13
1774419301.900127,13
1774419301.9185758,16
1774419301.9366355,22
1774419301.9526212,30
1774419301.967972,39
1774419301.9827154,48
1774419301.9999902,55
1774419302.0185316,58
1774419302.0377789,59
1774419302.0511587,56
1774419302.0683413,52
1774419302.0867977,47
1774419302.1075149,44
1774419302.1216762,41
1774419302.1339235,40
1774419302.150822,38
1774419302.1667607,37
1774419302.1827364,37
1774419302.2018101,37
1774419302.2203496,37
1774419302.2337303,38
1774419302.251567,38
1774419302.2675393,38
1774419302.2835548,36
1774419302.3043365,35
1774419302.3165143,33
1774419302.3328292,30
1774419302.3492532,27
1774419302.3659682,25
1774419302.3907075,23
1774419302.410955,21
1774419302.4217758,19
1774419302.4373932,18
1774419302.4548557,16
1774419302.4755185,15
1774419302.4862685,14
1774419302.5000079,13
1774419302.5166109,13
1774419302.5342772,12
1774419302.5500295,11
1774419302.5660093,10
1774419302.5887156,9
1774419302.6007361,8
1774419302.6188917,8
1774419302.6401744,11
1774419302.6564026,18
1774419302.667511,26
1774419302.6843135,36
1774419302.6995263,45
1774419302.7167318,53
1774419302.7337065,58
1774419302.749233,58
1774419302.7709858,56
1774419302.783299,52
1774419302.8034718,48
1774419302.8168259,44
1774419302.8347886,41
1774419302.851786,40
1774419302.8742104,39
1774419302.887472,38
1774419302.9043176,38
1774419302.923601,38
1774419302.9410071,38
1774419302.9497426,38
1774419302.9668434,38
1774419302.9845192,38
1774419302.999396,37
1774419303.0176167,35
1774419303.035599,33
1774419303.0507326,31
1774419303.0718315,28
1774419303.0835497,25
1774419303.1039839,23
1774419303.1196723,20
1774419303.1358058,18
1774419303.1493866,17
1774419303.1675491,16
1774419303.1829712,15
1774419303.2007344,14
1774419303.222147,13
1774419303.2435346,13
1774419303.2492232,12
1774419303.275541,12
1774419303.289625,11
1774419303.3084204,10
1774419303.3173897,9
1774419303.3332133,9
1774419303.3522868,10
1774419303.3728106,14
1774419303.3887715,22
1774419303.4035802,31
1774419303.418777,40
1774419303.43472,50
1774419303.4515326,57
1774419303.4674923,60
1774419303.4843009,60
1774419303.5016487,56
1774419303.5163724,51
1774419303.5340562,47
1774419303.5493646,43
1774419303.568004,40
1774419303.582644,39
1774419303.6011887,39
1774419303.6160486,39
1774419303.6435163,39
1774419303.6530201,39
1774419303.6708004,40
1774419303.6922076,40
1774419303.7049015,40
1774419303.7203844,40
1774419303.7364557,40
1774419303.7540193,39
1774419303.7662592,36
1774419303.787506,34
1774419303.8035505,31
1774419303.8182263,29
1774419303.836277,27
1774419303.8515363,25
1774419303.8711574,24
1774419303.8842072,23
1774419303.8995392,22
1774419303.917043,21
1774419303.935199,20
1774419303.949159,19
1774419303.96636,18
1774419303.9845557,17
1774419303.9994476,16
1774419304.016761,16
1774419304.0361862,17
1774419304.052328,20
1774419304.0735624,26
1774419304.0875604,35
1774419304.1013756,43
1774419304.1195657,53
1774419304.1329622,61
1774419304.1534207,65
1774419304.1739373,65
1774419304.1844254,63
1774419304.2035358,59
1774419304.2195094,54
1774419304.2342918,50
1774419304.251508,47
1774419304.2675085,44
1774419304.2845156,43
1774419304.2995281,43
1774419304.3180299,43
1774419304.3337374,44
1774419304.350184,45
1774419304.3676193,46
1774419304.3829923,47
1774419304.4017017,47
1774419304.4246762,47
1774419304.4448712,45
1774419304.4565,43
1774419304.4706624,40
1774419304.4883225,38
1774419304.500423,36
1774419304.5243032,34
1774419304.5358295,32
1774419304.5510614,30
1774419304.5699978,29
1774419304.5853353,27
1774419304.6023827,27
1774419304.619559,25
1774419304.6355572,25
1774419304.6515217,23
1774419304.6687162,23
1774419304.6831574,21
1774419304.6999733,20
1774419304.716454,20
1774419304.733443,22
1774419304.7491844,26
1774419304.7766988,34
1774419304.7829893,43
1774419304.8109994,53
1774419304.8210053,63
1774419304.8401291,70
1774419304.8514698,73
1774419304.8710716,72
1774419304.8829086,69
1774419304.902744,65
1774419304.9214766,60
1774419304.9375331,56
1774419304.9534945,54
1774419304.967453,52
1774419304.9855866,51
1774419305.0015671,50
1774419305.0175393,50
1774419305.0336547,50
1774419305.0535033,51
1774419305.0675416,51
1774419305.0845814,51
1774419305.1111042,50
1774419305.117265,49
1774419305.133101,47
1774419305.149273,45
1774419305.177516,42
1774419305.18251,40
1774419305.203329,37
1774419305.2171755,35
1774419305.235813,32
1774419305.2496371,31
1774419305.2693546,29
1774419305.283998,28
1774419305.307523,26
1774419305.3211634,25
1774419305.340726,24
1774419305.3494558,23
1774419305.3691146,22
1774419305.3875425,21
1774419305.4013138,20
1774419305.4182858,19
1774419305.4348383,18
1774419305.4554057,20
1774419305.4668972,24
1774419305.4862409,31
1774419305.4995203,40
1774419305.5169163,49
1774419305.5346806,58
1774419305.5490634,65
1774419305.5672853,68
1774419305.583279,67
1774419305.6064248,64
1774419305.622468,59
1774419305.6387393,55
1774419305.6543903,51
1774419305.6703913,49
1774419305.6845527,47
1774419305.7015147,46
1774419305.7208202,45
1774419305.7340045,45
1774419305.7508085,45
1774419305.765793,45
1774419305.7875366,45
1774419305.8016734,45
1774419305.8194842,45
1774419305.8330863,44
1774419305.851534,42
1774419305.8707514,40
1774419305.8877645,37
1774419305.903008,34
1774419305.918855,31
1774419305.9332132,29
1774419305.9505222,26
1774419305.967426,25
1774419305.9833062,23
1774419306.003894,22
1774419306.0199637,20
1774419306.0370739,19
1774419306.0508285,19
1774419306.0715685,18
1774419306.0853586,17
1774419306.1031435,16
1774419306.1169093,16
1774419306.1328773,15
1774419306.1491733,14
1774419306.1669896,13
1774419306.1857057,11
1774419306.203699,10
1774419306.2205892,10
1774419306.2353358,13
1774419306.2562678,18
1774419306.267543,26
1774419306.2827537,36
1774419306.299144,45
1774419306.3166897,54
1774419306.332526,59
1774419306.3490252,61
1774419306.3716552,59
1774419306.3876233,55
1774419306.4115262,51
1774419306.419448,47
1774419306.4354308,43
1774419306.45541,41
1774419306.4685092,40
1774419306.4947002,40
1774419306.502651,39
1774419306.5165517,40
1774419306.5355816,40
1774419306.5569942,40
1774419306.573178,40
1774419306.5875227,40
1774419306.6035287,40
1774419306.6162462,38
1774419306.6402164,36
1774419306.651549,34
1774419306.6664379,31
1774419306.6835432,29
1774419306.6995661,27
1774419306.7162442,25
1774419306.732398,23
1774419306.7490194,22
1774419306.7691362,21
1774419306.7826765,20
1774419306.8009684,19
1774419306.815983,19
1774419306.833923,18
1774419306.8493342,17
1774419306.8669136,16
1774419306.8843946,15
1774419306.9075234,14
1774419306.920928,14
1774419306.9346159,14
1774419306.9534822,18
1774419306.9667501,24
1774419306.9836175,32
1774419307.0046194,40
1774419307.0165615,49
1774419307.0329342,56
1774419307.0507233,59
1774419307.0657668,59
1774419307.084276,56
1774419307.099516,52
1774419307.1173422,48
1774419307.1360984,44
1774419307.1490188,41
1774419307.168067,40
1774419307.1828942,39
1774419307.2000933,39
1774419307.2160485,40
1774419307.24432,40
1774419307.2515037,41
1774419307.2764888,42
1774419307.287855,42
1774419307.3044062,42
1774419307.3235154,41
1774419307.3395057,40
1774419307.3505738,38
1774419307.3657749,36
1774419307.3828428,33
1774419307.4020712,31
1774419307.4180408,29
1774419307.4370294,27
1774419307.4493756,26
1774419307.4657087,25
1774419307.4826794,23
1774419307.4995394,22
1774419307.5156677,22
1774419307.5414436,21
1774419307.5491009,20
1774419307.5707684,20
1774419307.584005,19
1774419307.6002307,18
1774419307.6161475,17
1774419307.632683,17
1774419307.650482,18
1774419307.6659977,22
1774419307.6919503,28
1774419307.7011,37
1774419307.7156549,46
1774419307.7350924,56
1774419307.7532609,64
1774419307.770741,68
1774419307.7902713,68
1774419307.8035512,65
1774419307.8195763,61
1774419307.8328905,57
1774419307.8493326,53
1774419307.8683262,51
1774419307.8835216,49
1774419307.9040558,48
1774419307.9165568,48
1774419307.935991,48
1774419307.9489312,48
1774419307.9661803,49
1774419307.982834,49
1774419307.9991627,50
1774419308.0189297,50
1774419308.0418437,49
1774419308.0519755,47
1774419308.066094,45
1774419308.0851467,42
1774419308.100545,40
1774419308.1201687,39
1774419308.136096,36
1774419308.1518002,34
1774419308.1715283,33
1774419308.1874719,32
1774419308.2002816,31
1774419308.2195125,29
1774419308.2355328,29
1774419308.2516847,28
1774419308.2687688,27
1774419308.2836468,26
1774419308.2998216,25
1774419308.3156347,25
1774419308.3336368,24
1774419308.3502505,23
1774419308.3788142,22
1774419308.3831096,21
1774419308.4101007,21
1774419308.42237,24
1774419308.4366663,30
1774419308.4511821,38
1774419308.4694805,48
1774419308.4869704,58
1774419308.5033224,67
1774419308.5183623,73
1774419308.5375533,74
1774419308.5494776,73
1774419308.5700073,70
1774419308.5855565,66
1774419308.6001766,63
1774419308.6175542,60
1774419308.635488,59
1774419308.651137,58
1774419308.6664286,57
1774419308.6830802,57
1774419308.6995184,57
1774419308.7163284,57
1774419308.7425296,58
1774419308.7489092,58
1774419308.7755084,58
1774419308.7822428,57
1774419308.8000257,55
1774419308.815667,53
1774419308.8341157,51
1774419308.852419,48
1774419308.871233,46
1774419308.8826933,43
1774419308.9010825,41
1774419308.923776,40
1774419308.935094,38
1774419308.951574,37
1774419308.967045,35
1774419308.9826279,34
1774419308.9993715,33
1774419309.019514,33
1774419309.035572,32
1774419309.0502827,31
1774419309.0670872,31
1774419309.0855272,30
1774419309.105326,30
1774419309.1195588,29
1774419309.1380358,28
1774419309.14897,27
1774419309.1682787,25
1774419309.1827962,24
1774419309.2043927,23
1774419309.2190547,24
1774419309.2378225,29
1774419309.2497747,36
1774419309.266836,46
1774419309.2851212,57
1774419309.2989898,67
1774419309.3163505,75
1774419309.3323286,79
1774419309.3533401,80
1774419309.3714917,77
1774419309.3902824,73
1774419309.4048383,69
1774419309.4155433,65
1774419309.4355087,62
1774419309.4535234,61
1774419309.4694858,61
1774419309.4852467,61
1774419309.5041797,62
1774419309.5162685,63
1774419309.5328023,64
1774419309.5534542,65
1774419309.5666013,66
1774419309.5822546,66
1774419309.6043189,64
1774419309.6171632,62
1774419309.6334822,60
1774419309.6510496,58
1774419309.6660202,55
1774419309.6831603,53
1774419309.7074852,50
1774419309.7189822,48
1774419309.7333522,46
1774419309.7558408,45
1774419309.76757,43
1774419309.7874818,42
1774419309.7998698,41
1774419309.8243155,40
1774419309.8358943,40
1774419309.850094,39
1774419309.8674653,39
1774419309.8848436,37
1774419309.8994699,36
1774419309.9164035,34
1774419309.9375832,33
1774419309.9488997,34
1774419309.9657595,37
1774419309.9831197,43
1774419310.003074,52
1774419310.0168486,62
1774419310.038909,72
1774419310.0537143,80
1774419310.0702894,84
1774419310.089516,86
1774419310.099157,84
1774419310.1159587,81
1774419310.1372137,77
1774419310.1535404,73
1774419310.1669319,70
1774419310.185499,68
1774419310.2029438,67
1774419310.219445,67
1774419310.233878,67
1774419310.2606766,68
1774419310.271044,69
1774419310.283675,70
1774419310.3029823,70
1774419310.3169289,70
1774419310.3383002,69
1774419310.3489351,67
1774419310.3686228,64
1774419310.3823082,61
1774419310.4006832,58
1774419310.4275866,55
1774419310.434628,52
1774419310.451904,50
1774419310.4665484,48
1774419310.4882786,46
1774419310.498905,44
1774419310.5234268,43
1774419310.5387087,41
1774419310.5517223,40
1774419310.5680494,40
1774419310.583517,39
1774419310.5990922,38
1774419310.6232617,37
1774419310.6327283,36
1774419310.6551647,35
1774419310.670094,33
1774419310.6835072,32
1774419310.6995223,30
1774419310.715519,31
1774419310.7343068,34
1774419310.7503262,40
1774419310.7663689,48
1774419310.7832139,59
1774419310.8091674,70
1774419310.8175478,80
1774419310.8402958,87
1774419310.850058,90
1774419310.8660102,90
1774419310.883212,88
1774419310.9074793,84
1774419310.9165657,81
1774419310.9339454,78
1774419310.9534907,76
1774419310.9663498,75
1774419310.9855342,75
1774419311.0002081,75
1774419311.0157068,75
1774419311.0354726,75
1774419311.052758,76
1774419311.0697286,76
1774419311.082906,76
1774419311.09965,75
1774419311.1176772,74
1774419311.1355581,72
1774419311.1490252,69
1774419311.1753037,67
1774419311.1821132,64
1774419311.202334,61
1774419311.2188387,58
1774419311.2385743,55
1774419311.2542713,53
1774419311.272864,51
1774419311.2875676,49
1774419311.29888,47
1774419311.3195941,45
1774419311.339501,44
1774419311.3538575,43
1774419311.3660684,42
1774419311.3851206,41
1774419311.4042153,40
1774419311.4195006,40
1774419311.4335222,38
1774419311.452679,36
1774419311.4675553,34
1774419311.4864547,33
1774419311.500623,34
1774419311.51627,37
1774419311.5390315,43
1774419311.5490036,52
1774419311.575283,63
1774419311.5820851,75
1774419311.601749,84
1774419311.6173189,90
1774419311.633373,92
1774419311.6580794,91
1774419311.6692736,89
1774419311.6872215,85
1774419311.703322,82
1774419311.7216184,79
1774419311.7407296,78
1774419311.7527614,77
1774419311.7685423,76
1774419311.7822726,76
1774419311.7993498,76
1774419311.8236346,76
1774419311.8356695,77
1774419311.8516135,77
1774419311.865554,76
1774419311.8834858,75
1774419311.8991027,74
1774419311.91584,71
1774419311.9331224,68
1774419311.948738,65
1774419311.9665818,62
1774419311.982083,59
1774419311.9993057,56
1774419312.0192251,54
1774419312.0353668,52
1774419312.0510523,50
1774419312.0662627,48
1774419312.0911138,46
1774419312.099297,45
1774419312.1221225,43
1774419312.1394985,42
1774419312.1488059,40
1774419312.1700158,40
1774419312.1861148,39
1774419312.201164,37
1774419312.217099,35
1774419312.2333653,34
1774419312.250784,32
1774419312.2675126,33
1774419312.2849257,37
1774419312.2995691,43
1774419312.3155403,52
1774419312.3342795,63
1774419312.3489385,74
1774419312.3723328,83
1774419312.3898518,89
1774419312.4089596,91
1774419312.4233322,90
1774419312.438714,87
1774419312.451015,84
1774419312.4699526,80
1774419312.483447,77
1774419312.5034392,75
1774419312.5172489,74
1774419312.5323665,73
1774419312.5528562,73
1774419312.568361,74
1774419312.5830905,75
1774419312.5991085,75
1774419312.619504,76
1774419312.63673,76
1774419312.6510322,75
1774419312.6678555,73
1774419312.684997,70
1774419312.6994975,67
1774419312.715494,65
1774419312.7356899,62
1774419312.7505195,59
1774419312.774008,56
1774419312.7832844,54
1774419312.8059978,52
1774419312.8185658,49
1774419312.8434918,48
1774419312.8569329,46
1774419312.870047,45
1774419312.8861141,44
1774419312.9058785,42
1774419312.9229777,41
1774419312.9322217,40
1774419312.9501307,39
1774419312.966251,38
1774419312.982583,40
1774419313.000911,43
1774419313.0181522,51
1774419313.0366633,60
1774419313.0514784,70
1774419313.0654943,80
1774419313.0834835,87
1774419313.099059,91
1774419313.1155298,91
1774419313.1333263,90
1774419313.1490302,86
1774419313.1724963,83
1774419313.182135,79
1774419313.2051601,77
1774419313.221337,74
1774419313.2361143,73
1774419313.2531443,73
1774419313.2691598,73
1774419313.285202,73
1774419313.2998857,74
1774419313.318693,75
1774419313.3346586,75
1774419313.3509781,74
1774419313.37151,72
1774419313.3875904,69
1774419313.398998,66
1774419313.415749,63
1774419313.4329321,59
1774419313.4537485,56
1774419313.468325,53
1774419313.4866753,50
1774419313.5006187,48
1774419313.5166152,46
1774419313.5407195,44
1774419313.5495617,43
1774419313.5660725,41
1774419313.5820823,40
1774419313.5988958,39
1774419313.6160982,38
1774419313.6384552,36
1774419313.6526177,33
1774419313.6657043,32
1774419313.6882772,34
1774419313.700534,38
1774419313.7186954,45
1774419313.7331824,55
1774419313.7510839,66
1774419313.7654095,78
1774419313.7826877,87
1774419313.7995129,92
1774419313.8194711,94
1774419313.8339777,93
1774419313.8515215,90
1774419313.8759193,87
1774419313.8900492,85
1774419313.9082785,82
1774419313.9157975,81
1774419313.9410355,79
1774419313.949033,78
1774419313.9659672,77
1774419313.9819567,77
1774419314.0040867,77
1774419314.0199518,77
1774419314.0346363,76
1774419314.052903,76
1774419314.0666513,74
1774419314.0824835,73
1774419314.0992105,70
1774419314.1154234,67
1774419314.139459,63
1774419314.150407,60
1774419314.1788733,57
1774419314.1874907,55
1774419314.2035594,52
1774419314.228826,50
1774419314.2379317,48
1774419314.2514577,45
1774419314.2688692,44
1774419314.2834878,42
1774419314.299506,41
1774419314.3162162,40
1774419314.3411756,39
1774419314.3530507,37
1774419314.370239,36
1774419314.3917735,34
1774419314.3991191,32
1774419314.4187543,31
1774419314.4332788,33
1774419314.4535217,38
1774419314.4704788,46
1774419314.488728,56
1774419314.5035176,68
1774419314.5250747,79
1774419314.5395412,87
1774419314.5528848,92
1774419314.5679934,93
1774419314.58201,92
1774419314.60104,90
1774419314.6236396,87
1774419314.6323755,85
1774419314.651488,83
1774419314.6686947,81
1774419314.686647,80
1774419314.7002892,79
1774419314.715242,78
1774419314.7336664,78
1774419314.7485611,77
1774419314.7667131,77
1774419314.7834976,77
1774419314.7994473,76
1774419314.8170593,74
1774419314.8337417,72
1774419314.8496554,69
1774419314.8659375,66
1774419314.8888912,62
1774419314.9050143,58
1774419314.923457,55
1774419314.9349976,52
1774419314.9529057,49
1774419314.9669578,47
1774419314.982108,45
1774419314.9991643,43
1774419315.018808,41
1774419315.0323231,40
1774419315.0515184,39
1774419315.0670836,38
1774419315.0834522,38
1774419315.099489,37
1774419315.116673,36
1774419315.1322534,36
1774419315.1485665,35
1774419315.1653447,35
1774419315.185649,37
1774419315.1987402,40
1774419315.216417,48
1774419315.237445,58
1774419315.2594888,70
1774419315.2667615,81
1774419315.2844036,90
1774419315.3072891,96
1774419315.318955,98
1774419315.3357503,97
1774419315.3550818,94
1774419315.3653412,91
1774419315.3849735,87
1774419315.4021761,84
1774419315.4188483,82
1774419315.433752,80
1774419315.4496837,79
1774419315.4671338,78
1774419315.4820836,77
1774419315.498854,77
1774419315.51549,78
1774419315.5327718,78
1774419315.548974,77
1774419315.567646,76
1774419315.587896,74
1774419315.6009176,71
1774419315.6252844,68
1774419315.634807,65
1774419315.6537426,61
1774419315.6655583,58
1774419315.6911182,54
1774419315.6985884,51
1774419315.7152095,49
1774419315.737106,46
1774419315.7610977,43
1774419315.769465,41
1774419315.7859473,40
1774419315.8017707,38
1774419315.819506,36
1774419315.832784,34
1774419315.8489022,32
1774419315.8652742,30
1774419315.8835,28
1774419315.9005437,26
1774419315.915504,23
1774419315.9341612,22
1774419315.948534,21
1774419315.9659534,24
1774419315.98331,30
1774419315.9989386,39
1774419316.021425,49
1774419316.0375738,61
1774419316.0519114,72
1774419316.0715864,80
1774419316.0818613,83
1774419316.0998447,84
1774419316.119651,82
1774419316.13566,79
1774419316.151638,76
1774419316.1676533,74
1774419316.1826367,72
1774419316.1985776,71
1774419316.2215598,70
1774419316.232658,69
1774419316.255704,69
1774419316.2720008,70
1774419316.283554,70
1774419316.301842,70
1774419316.3174784,70
1774419316.3380764,69
1774419316.34928,67
1774419316.3715668,64
1774419316.3824956,61
1774419316.3985124,57
1774419316.417523,54
1774419316.4357524,50
1774419316.453575,47
1774419316.4689915,44
1774419316.4855483,42
1774419316.498541,40
1774419316.5214477,38
1774419316.5336154,37
1774419316.5489812,35
1774419316.565686,33
1774419316.5910807,31
1774419316.6035426,29
1774419316.61552,28
1774419316.6355016,26
1774419316.6514564,24
1774419316.6674562,24
1774419316.683558,27
1774419316.6995327,32
1774419316.715502,40
1774419316.7356472,49
1774419316.7490208,60
1774419316.7716155,69
1774419316.7859488,75
1774419316.8036284,78
1774419316.8158646,78
1774419316.8344843,76
1774419316.8516738,73
1774419316.8656085,69
1774419316.8836656,66
1774419316.8997114,63
1774419316.9192972,61
1774419316.9353013,60
1774419316.9491346,59
1774419316.9663022,60
1774419316.98387,60
1774419316.9994843,61
1774419317.01849,62
1774419317.0355027,61
1774419317.0514987,60
1774419317.0671182,58
1774419317.0835428,55
1774419317.100293,52
1774419317.1155035,48
1774419317.1352017,45
1774419317.148423,42
1774419317.1662016,40
1774419317.1830573,38
1774419317.2023053,36
1774419317.215196,34
1774419317.2339303,32
1774419317.2493885,30
1774419317.2655194,28
1774419317.2817945,26
1774419317.3018775,24
1774419317.3155043,23
1774419317.334973,24
1774419317.353364,28
1774419317.3685946,34
1774419317.3894022,42
1774419317.4010437,53
1774419317.4194846,63
1774419317.43548,71
1774419317.4514995,77
1774419317.4678667,79
1774419317.4835334,78
1774419317.5006607,75
1774419317.517286,71
1774419317.5337944,67
1774419317.5488029,64
1774419317.5674741,61
1774419317.584736,59
1774419317.5992544,58
1774419317.6178,58
1774419317.6405475,58
1774419317.6524396,59
1774419317.6655989,60
1774419317.686635,61
1774419317.7082677,60
1774419317.7196438,59
1774419317.7348611,56
1774419317.7503355,53
1774419317.7656927,50
1774419317.7874901,46
1774419317.8025825,43
1774419317.81954,40
1774419317.8345954,39
1774419317.8514762,36
1774419317.8667383,34
1774419317.8821208,32
1774419317.8994718,29
1774419317.9165227,27
1774419317.9326062,26
1774419317.9485433,26
1774419317.9664443,29
1774419317.981795,35
1774419318.001401,43
1774419318.0150533,53
1774419318.0369117,65
1774419318.0531247,74
1774419318.0659485,81
1774419318.0878448,84
1774419318.1050289,84
1774419318.1234524,82
1774419318.1400247,79
1774419318.1496277,76
1774419318.166998,73
1774419318.1871605,70
1774419318.1995609,68
1774419318.2153685,67
1774419318.2356946,66
1774419318.2486513,66
1774419318.2653313,66
1774419318.2828119,67
1774419318.2991648,67
1774419318.3161526,66
1774419318.332484,64
1774419318.348487,62
1774419318.3709266,59
1774419318.3817255,55
1774419318.4028695,52
1774419318.415145,49
1774419318.4318492,46
1774419318.4519644,42
1774419318.4662461,40
1774419318.4872015,37
1774419318.500491,34
1774419318.5181315,31
1774419318.5371203,30
1774419318.549087,30
1774419318.5684,35
1774419318.5851333,41
1774419318.5996742,51
1774419318.6172903,62
1774419318.6333227,74
1774419318.6492522,82
1774419318.6650667,88
1774419318.6825364,90
1774419318.7014244,89
1774419318.7235272,87
1774419318.7366548,85
1774419318.7486415,82
1774419318.7651994,79
1774419318.781729,77
1774419318.8020966,74
1774419318.815113,72
1774419318.8365343,70
1774419318.8483615,68
1774419318.8727226,66
1774419318.8836248,66
1774419318.9049356,65
1774419318.920815,64
1774419318.9367664,62
1774419318.9507804,60
1774419318.9663036,57
1774419318.9836547,53
1774419319.0007286,49
1774419319.0194507,46
1774419319.0354562,43
1774419319.0486858,40
1774419319.067488,38
1774419319.0834908,35
1774419319.0986905,33
1774419319.1155698,30
1774419319.1319134,27
1774419319.1514919,25
1774419319.1755867,25
1774419319.1816614,28
1774419319.207306,34
1774419319.221619,43
1774419319.2347934,54
1774419319.2555673,66
1774419319.2716632,76
1774419319.286597,83
1774419319.3027143,86
1774419319.3153327,86
1774419319.334211,85
1774419319.3555415,83
1774419319.3649988,81
1774419319.3816757,79
1774419319.403467,77
1774419319.4149845,74
1774419319.4370012,72
1774419319.4514418,68
1774419319.4659097,65
1774419319.484215,63
1774419319.4995468,61
1774419319.5235956,59
1774419319.5390334,58
1774419319.549428,56
1774419319.5672767,53
1774419319.5820463,50
1774419319.6023638,47
1774419319.617294,43
1774419319.6348772,39
1774419319.6483462,35
1774419319.6673405,32
1774419319.6828778,28
1774419319.7000022,25
1774419319.7192054,22
1774419319.7389195,19
1774419319.7580733,16
1774419319.765453,14
1774419319.7831254,12
1774419319.8034558,10
1774419319.8198633,8
1774419319.8316944,5
1774419319.8570743,3
1774419319.866438,1
1774419319.8934376,1
1774419319.8986816,3
1774419319.9158847,9
1774419319.9318736,18
1774419319.9484503,30
1774419319.9651942,41
1774419319.9824018,53
1774419319.9997525,61
1774419320.0149617,65
1774419320.0331256,67
1774419320.0484846,66
1774419320.0716388,64
1774419320.0833247,62
1774419320.1057763,60
1774419320.115108,58
1774419320.1342368,56
1774419320.148616,54
1774419320.1715238,51
1774419320.1834698,48
1774419320.2007291,46
1774419320.2200012,44
1774419320.2363064,43
1774419320.2523818,42
1774419320.2674766,41
1774419320.281625,39
1774419320.2994955,37
1774419320.3167105,34
1774419320.3345418,30
1774419320.3505692,26
1774419320.3666513,22
1774419320.3816097,19
1774419320.3983588,16
1774419320.4188366,13
