timestamp,bvp
1774420147.035954,73
1774420147.0526004,72
1774420147.0692894,69
1774420147.0859308,67
1774420147.102599,63
1774420147.1193132,60
1774420147.1359222,56
1774420147.1526709,53
1774420147.1692915,50
1774420147.1859176,47
1774420147.2025971,44
1774420147.2193048,42
1774420147.235959,40
1774420147.2526102,39
1774420147.2692678,37
1774420147.285994,35
1774420147.3026266,33
1774420147.3193598,31
1774420147.3362122,29
1774420147.3529916,27
1774420147.369418,25
1774420147.3863695,23
1774420147.402649,22
1774420147.4199145,21
1774420147.4359784,20
1774420147.453237,19
1774420147.4702485,19
1774420147.486531,18
1774420147.5032902,17
1774420147.5197392,17
1774420147.5360827,17
1774420147.5530272,16
1774420147.5698352,16
1774420147.5877779,16
1774420147.6036553,15
1774420147.6211374,16
1774420147.6369007,17
1774420147.6538203,21
1774420147.6711922,27
1774420147.688142,34
1774420147.705013,40
1774420147.719868,48
1774420147.7360792,54
1774420147.7529037,58
1774420147.7698286,60
1774420147.7865694,60
1774420147.8027697,58
1774420147.8198357,56
1774420147.8361096,54
1774420147.8529234,51
1774420147.8741271,48
1774420147.887623,46
1774420147.9084585,44
1774420147.9271421,42
1774420147.9394362,40
1774420147.9608471,40
1774420147.9722245,39
1774420147.9935951,39
1774420148.0029166,38
1774420148.0211465,38
1774420148.036772,38
1774420148.0571506,37
1774420148.0693421,36
1774420148.0871186,35
1774420148.1037452,34
1774420148.119999,33
1774420148.1371484,32
1774420148.153388,31
1774420148.1692905,30
1774420148.1968951,29
1774420148.2026873,28
1774420148.2201695,28
1774420148.2359881,28
1774420148.2540455,27
1774420148.2721386,27
1774420148.2866306,27
1774420148.3034098,27
1774420148.323438,27
1774420148.3437865,27
1774420148.3555229,27
1774420148.376878,28
1774420148.3873134,32
1774420148.4033518,37
1774420148.424842,43
1774420148.4380789,50
1774420148.455796,58
1774420148.4728663,64
1774420148.488878,68
1774420148.5071123,70
1774420148.5208838,70
1774420148.539082,69
1774420148.5529242,67
1774420148.5698168,65
1774420148.586118,62
1774420148.6025314,60
1774420148.6271355,57
1774420148.6439304,55
1774420148.6542459,53
1774420148.6707625,51
1774420148.686272,49
1774420148.7067847,48
1774420148.7202861,48
1774420148.742047,47
1774420148.753969,47
1774420148.776892,46
1774420148.7873747,46
1774420148.8088448,45
1774420148.822027,43
1774420148.838028,42
1774420148.8568804,40
1774420148.8713477,40
1774420148.8864253,39
1774420148.9042768,37
1774420148.9203548,36
1774420148.9418101,35
1774420148.9528892,35
1774420148.9696667,34
1774420148.992442,33
1774420149.0024781,33
1774420149.025034,32
1774420149.043791,32
1774420149.0529199,31
1774420149.0712228,31
1774420149.086256,32
1774420149.1035404,35
1774420149.1210296,39
1774420149.1397653,44
1774420149.1541424,51
1774420149.175175,58
1774420149.1939702,64
1774420149.2076514,69
1774420149.2212822,71
1774420149.2374933,71
1774420149.2538831,70
1774420149.2699864,68
1774420149.286138,65
1774420149.3048763,63
1774420149.3225257,60
1774420149.336863,57
1774420149.3528657,55
1774420149.370865,52
1774420149.3938053,50
1774420149.4024622,49
1774420149.4196112,48
1774420149.4407356,47
1774420149.4595764,46
1774420149.470618,46
1774420149.491316,45
1774420149.50809,44
1774420149.524142,43
1774420149.5402987,41
1774420149.5556326,40
1774420149.570804,39
1774420149.58673,38
1774420149.6026583,36
1774420149.6197631,35
1774420149.6410224,34
1774420149.657498,33
1774420149.6745183,33
1774420149.6868722,32
1774420149.7105286,32
1774420149.7208545,31
1774420149.7392151,31
1774420149.7605858,30
1774420149.7697034,30
1774420149.7938504,30
1774420149.8026862,29
1774420149.8266227,30
1774420149.8366897,32
1774420149.859253,36
1774420149.8747847,41
1774420149.8891459,47
1774420149.9097736,54
1774420149.9226806,60
1774420149.9386792,65
1774420149.9597743,67
1774420149.972842,67
1774420149.9906547,66
1774420150.0045567,64
1774420150.020046,61
1774420150.0417554,59
1774420150.0568686,56
1774420150.0728614,53
1774420150.0861633,51
1774420150.1039038,48
1774420150.1208293,46
1774420150.138103,45
1774420150.15671,44
1774420150.1707187,43
1774420150.1896102,42
1774420150.2025192,42
1774420150.2262323,41
1774420150.2361822,40
1774420150.2583299,40
1774420150.2692535,39
1774420150.290266,38
1774420150.305105,37
1774420150.320781,35
1774420150.3361876,34
1774420150.3537455,33
1774420150.3703673,32
1774420150.3858242,31
1774420150.4095783,31
1774420150.4223065,30
1774420150.4383173,29
1774420150.4570704,29
1774420150.4730535,29
1774420150.4859104,29
1774420150.5047355,28
1774420150.5199652,28
1774420150.5369651,28
1774420150.552888,27
1774420150.5739992,27
1774420150.58959,28
1774420150.6026073,30
1774420150.6236298,34
1774420150.6376276,40
1774420150.6562264,46
1774420150.6736054,53
1774420150.6885743,59
1774420150.7057865,63
1774420150.7217343,64
1774420150.7373579,64
1774420150.7545118,63
1774420150.769987,60
1774420150.7882679,58
1774420150.8088493,55
1774420150.8208542,52
1774420150.8408659,50
1774420150.8591375,47
1774420150.8703353,45
1774420150.8864486,43
1774420150.9040084,42
1774420150.9210835,41
1774420150.936888,41
1774420150.9528756,40
1774420150.969476,40
1774420150.9945083,40
1774420151.002467,40
1774420151.0246367,39
1774420151.0358927,38
1774420151.0567296,36
1774420151.070369,35
1774420151.0877035,34
1774420151.1029122,33
1774420151.1203966,32
1774420151.1368256,31
1774420151.1528528,30
1774420151.1772356,29
1774420151.1864805,29
1774420151.2088716,28
1774420151.2263224,28
1774420151.237226,28
1774420151.2526898,27
1774420151.2714913,27
1774420151.2936866,27
1774420151.3026054,27
1774420151.322077,27
1774420151.3397343,27
1774420151.3544836,26
1774420151.3701308,27
1774420151.389166,29
1774420151.4023736,32
1774420151.4253724,38
1774420151.4360282,43
1774420151.4534807,51
1774420151.4771142,57
1774420151.4887092,62
1774420151.5046542,65
1774420151.5207272,66
1774420151.5376222,65
1774420151.556482,63
1774420151.577399,60
1774420151.5925875,57
1774420151.6088197,54
1774420151.624906,51
1774420151.6408277,49
1774420151.6527333,46
1774420151.6728766,44
1774420151.688134,43
1774420151.7048993,42
1774420151.723922,41
1774420151.7387233,41
1774420151.7528594,41
1774420151.7717829,40
1774420151.7903163,40
1774420151.8025808,40
1774420151.822834,39
1774420151.8391423,37
1774420151.854757,36
1774420151.8730447,35
1774420151.8860078,33
1774420151.9032662,32
1774420151.9220018,31
1774420151.9366484,31
1774420151.9576964,30
1774420151.969363,29
1774420151.991189,29
1774420152.0088203,28
1774420152.0223346,28
1774420152.0408473,27
1774420152.056913,27
1774420152.0776236,27
1774420152.0864892,27
1774420152.1042764,27
1774420152.1208646,27
1774420152.13655,26
1774420152.1527872,26
1774420152.1689744,26
1774420152.1898973,27
1774420152.2058966,30
1774420152.2190697,35
1774420152.2371364,41
1774420152.2589848,48
1774420152.2698965,55
1774420152.285672,61
1774420152.3106847,65
1774420152.3238337,66
1774420152.3437743,66
1774420152.3605218,64
1774420152.3710496,62
1774420152.3937576,59
1774420152.4058642,56
1774420152.42482,53
1774420152.4409208,50
1774420152.458368,48
1774420152.4720137,46
1774420152.4911182,44
1774420152.5048714,43
1774420152.5192256,42
1774420152.5368717,41
1774420152.55744,41
1774420152.57322,41
1774420152.5892744,40
1774420152.6051996,40
1774420152.6189654,39
1774420152.6395369,38
1774420152.6526558,37
1774420152.66974,35
1774420152.6937664,34
1774420152.7091305,33
1774420152.727276,32
1774420152.7361286,31
1774420152.7578225,30
1774420152.7695546,29
1774420152.7861497,28
1774420152.8066573,28
1774420152.8271112,28
1774420152.8410792,27
1774420152.8568408,27
1774420152.8728647,27
1774420152.8921878,27
1774420152.9027386,26
1774420152.9209843,26
1774420152.939483,26
1774420152.956192,26
1774420152.9719155,25
1774420152.9857912,25
1774420153.00326,27
1774420153.019455,29
1774420153.0377018,34
1774420153.0561423,40
1774420153.0771573,47
1774420153.0860093,55
1774420153.1046963,61
1774420153.1211252,65
1774420153.1407776,67
1774420153.1539235,66
1774420153.1742685,65
1774420153.1876972,62
1774420153.207269,59
1774420153.2272377,56
1774420153.2390742,53
1774420153.2549489,51
1774420153.2728918,48
1774420153.288845,46
1774420153.304848,44
1774420153.319458,43
1774420153.336523,42
1774420153.3578458,41
1774420153.3701534,41
1774420153.3863435,41
1774420153.4031494,40
1774420153.4189477,40
1774420153.43967,39
1774420153.4534216,38
1774420153.4711208,37
1774420153.4942544,35
1774420153.5067425,34
1774420153.527116,33
1774420153.546221,32
1774420153.5579994,31
1774420153.5714812,30
1774420153.5867653,29
1774420153.6028254,28
1774420153.6232977,28
1774420153.6375587,27
1774420153.6585162,27
1774420153.669066,26
1774420153.688128,26
1774420153.7027872,26
1774420153.7206857,26
1774420153.736873,26
1774420153.7529535,26
1774420153.7692754,25
1774420153.787548,25
1774420153.804477,25
1774420153.818968,27
1774420153.837582,30
1774420153.8523285,36
1774420153.8707821,42
1774420153.8937814,50
1774420153.9028728,57
1774420153.9232888,63
1774420153.937752,66
1774420153.9598935,68
1774420153.9706602,67
1774420153.99169,65
1774420154.008826,62
1774420154.019719,59
1774420154.0410058,56
1774420154.0545955,53
1774420154.069651,50
1774420154.0860357,47
1774420154.1024113,45
1774420154.1206858,44
1774420154.136334,43
1774420154.1537514,42
1774420154.1761248,42
1774420154.1870692,42
1774420154.207578,42
1774420154.2188995,41
1774420154.2371016,41
1774420154.2523832,40
1774420154.2745688,40
1774420154.2927926,38
1774420154.308744,37
1774420154.3213649,35
1774420154.3383794,34
1774420154.3526585,33
1774420154.3728995,32
1774420154.3869393,31
1774420154.4039717,31
1774420154.4200456,30
1774420154.4359112,30
1774420154.455047,30
1774420154.469431,30
1774420154.4913669,30
1774420154.504838,30
1774420154.520877,30
1774420154.536831,29
1774420154.552879,29
1774420154.571269,29
1774420154.5903125,30
1774420154.6104052,32
1774420154.618995,37
1774420154.640613,42
1774420154.6526167,49
1774420154.6718788,56
1774420154.6905892,62
1774420154.7051916,66
1774420154.7214162,67
1774420154.7373524,67
1774420154.753487,65
1774420154.7695847,63
1774420154.7917242,60
1774420154.8074918,56
1774420154.8252208,53
1774420154.8364067,51
1774420154.8549905,48
1774420154.8771253,46
1774420154.888874,44
1774420154.9024673,43
1774420154.9193413,42
1774420154.9363565,42
1774420154.9543765,41
1774420154.970389,41
1774420154.9859984,41
1774420155.002776,40
1774420155.0192707,40
1774420155.038818,39
1774420155.05243,37
1774420155.0711398,36
1774420155.086827,35
1774420155.1029143,33
1774420155.1208305,32
1774420155.143893,31
1774420155.1578386,30
1774420155.1769972,30
1774420155.1937718,29
1774420155.2088544,29
1774420155.219247,28
1774420155.2392511,28
1774420155.2557046,28
1774420155.270251,28
1774420155.2881906,27
1774420155.304007,27
1774420155.3197315,27
1774420155.3411689,27
1774420155.3528335,27
1774420155.3692799,28
1774420155.386406,32
1774420155.4062183,37
1774420155.4189463,43
1774420155.4367175,50
1774420155.4527028,57
1774420155.4688642,63
1774420155.486059,66
1774420155.5026977,67
1774420155.5191715,67
1774420155.5357614,65
1774420155.552652,62
1774420155.5691106,59
1774420155.5861232,56
1774420155.6022885,53
1774420155.619045,51
1774420155.6357844,48
1774420155.6527805,46
1774420155.669137,45
1774420155.685937,43
1774420155.7021775,43
1774420155.7202656,42
1774420155.7355177,42
1774420155.7528002,42
1774420155.7688503,41
1774420155.7857654,40
1774420155.802303,40
1774420155.8187819,39
1774420155.8358738,38
1774420155.8527257,36
1774420155.8689156,35
1774420155.8863225,34
1774420155.9036353,33
1774420155.9196458,32
1774420155.9359996,31
1774420155.952496,30
1774420155.9693036,30
1774420155.9858563,29
1774420156.002671,29
1774420156.0198145,29
1774420156.0362089,28
1774420156.0533888,28
1774420156.0690486,28
1774420156.085899,28
1774420156.1022775,27
1774420156.1199017,27
1774420156.1355188,28
1774420156.1523845,31
1774420156.1691577,36
1774420156.1854312,42
1774420156.2023067,49
1774420156.2187579,56
1774420156.2358956,61
1774420156.2526186,65
1774420156.2692091,66
1774420156.2860394,66
1774420156.3025396,64
1774420156.3193653,61
1774420156.3365643,59
1774420156.3571062,56
1774420156.371947,53
1774420156.3864818,50
1774420156.4021826,48
1774420156.4234128,46
1774420156.438946,44
1774420156.4525092,43
1774420156.4696796,42
1774420156.4856675,42
1774420156.5024347,42
1774420156.519624,41
1774420156.5356438,41
1774420156.5524497,40
1774420156.5689707,40
1774420156.5860546,39
1774420156.6026134,37
1774420156.6187394,36
1774420156.6374002,35
1774420156.6525834,33
1774420156.6703377,32
1774420156.6856992,31
1774420156.7025099,31
1774420156.7189643,30
1774420156.7356696,29
1774420156.7529118,29
1774420156.769074,28
1774420156.785759,28
1774420156.8024092,28
1774420156.8191662,28
1774420156.8356035,27
1774420156.85409,27
1774420156.869159,27
1774420156.8855455,27
1774420156.9026296,27
1774420156.9193819,29
1774420156.9357052,33
1774420156.9534433,39
1774420156.9701648,45
1774420156.9859827,52
1774420157.0022242,58
1774420157.0187554,63
1774420157.0365458,65
1774420157.0529227,65
1774420157.069023,63
1774420157.0861123,61
1774420157.1023855,58
1774420157.1188955,55
1774420157.1356552,52
1774420157.1525595,49
1774420157.1706517,47
1774420157.186249,44
1774420157.2025166,42
1774420157.2190175,41
1774420157.2358656,40
1774420157.2522926,40
1774420157.2690427,40
1774420157.2862837,40
1774420157.3022757,39
1774420157.3196485,39
1774420157.3358223,38
1774420157.3523023,37
1774420157.3695579,36
1774420157.3862913,34
1774420157.4023335,33
1774420157.4187176,32
1774420157.4355357,31
1774420157.45206,30
1774420157.469301,29
1774420157.4868453,29
1774420157.5031762,28
1774420157.519691,28
1774420157.5367265,27
1774420157.552664,27
1774420157.5692856,27
1774420157.5863047,27
1774420157.6024275,27
1774420157.6190186,27
1774420157.6358345,26
1774420157.6521797,26
1774420157.6696754,26
1774420157.6858852,28
1774420157.7028399,32
1774420157.7188215,38
1774420157.7357314,43
1774420157.752765,51
1774420157.7687798,57
1774420157.7859576,62
1774420157.8024879,65
1774420157.8187575,66
1774420157.8375978,65
1774420157.8541155,63
1774420157.8713093,60
1774420157.887087,57
1774420157.905137,55
1774420157.9208076,52
1774420157.9393141,50
1774420157.9523902,47
1774420157.968909,45
1774420157.9862146,44
1774420158.002918,43
1774420158.0187352,43
1774420158.036713,42
1774420158.0522838,42
1774420158.0689428,42
1774420158.0854974,41
1774420158.1024153,40
1774420158.1189241,40
1774420158.1369028,39
1774420158.152569,38
1774420158.1688366,36
1774420158.1860702,35
1774420158.202623,34
1774420158.218644,33
1774420158.236135,33
1774420158.2525492,32
1774420158.2703302,32
1774420158.286198,31
1774420158.3022766,31
1774420158.3196557,30
1774420158.33551,30
1774420158.3523695,30
1774420158.369646,29
1774420158.3862178,29
1774420158.4024656,28
1774420158.4189837,29
1774420158.4356298,30
1774420158.452364,33
1774420158.4690363,38
1774420158.4856567,43
1774420158.5028343,50
1774420158.5196903,57
1774420158.5359333,62
1774420158.5523016,65
1774420158.5688765,66
1774420158.585779,65
1774420158.6025863,63
1774420158.6187253,61
1774420158.6356661,58
1774420158.6527104,56
1774420158.669785,53
1774420158.6858146,51
1774420158.7025926,48
1774420158.7194674,46
1774420158.735381,45
1774420158.7524164,43
1774420158.7692633,43
1774420158.7855878,42
1774420158.802521,42
1774420158.8194935,41
1774420158.8363266,41
1774420158.852308,40
1774420158.869441,39
1774420158.8859065,38
1774420158.9026163,36
1774420158.919293,35
1774420158.9368148,33
1774420158.9525554,32
1774420158.9688864,31
1774420158.986081,30
1774420159.0025613,29
1774420159.0187411,28
1774420159.0354893,28
1774420159.052289,28
1774420159.068911,28
1774420159.0863163,27
1774420159.1024587,27
1774420159.1188848,27
1774420159.136462,27
1774420159.1524403,27
1774420159.1691427,26
1774420159.185787,27
1774420159.2023606,28
1774420159.2187214,32
1774420159.2358172,37
1774420159.2541835,43
1774420159.269296,50
1774420159.285474,56
1774420159.302255,61
1774420159.3195422,64
1774420159.3355968,65
1774420159.352508,64
1774420159.3687758,62
1774420159.386343,60
1774420159.403648,57
1774420159.4196758,54
1774420159.4358191,52
1774420159.4530168,49
1774420159.4690542,47
1774420159.48578,45
1774420159.5025413,43
1774420159.5192525,42
1774420159.5361097,41
1774420159.553212,40
1774420159.5687943,40
1774420159.585492,40
1774420159.6024776,39
1774420159.6193435,38
1774420159.6354594,37
1774420159.6542094,36
1774420159.6692207,35
1774420159.6861095,34
1774420159.7021668,32
1774420159.719551,31
1774420159.7357476,31
1774420159.7524278,30
1774420159.7689092,29
1774420159.785585,29
1774420159.8025694,29
1774420159.8187816,28
1774420159.8352284,28
1774420159.8521237,28
1774420159.8691566,28
1774420159.8863926,28
1774420159.9023492,27
1774420159.9186513,27
1774420159.9354327,27
1774420159.952325,27
1774420159.9687548,28
1774420159.985642,30
1774420160.002269,35
1774420160.0193682,40
1774420160.035755,46
1774420160.0524707,53
1774420160.0693905,58
1774420160.0857787,61
1774420160.1021664,63
1774420160.1188817,62
1774420160.1360812,60
1774420160.1522276,58
1774420160.1686676,56
1774420160.1872466,53
1774420160.2020867,50
1774420160.218811,48
1774420160.2355714,46
1774420160.25359,44
1774420160.2708611,42
1774420160.2863693,41
1774420160.3027127,40
1774420160.3187637,40
1774420160.335519,40
1774420160.3521757,40
1774420160.3686755,39
1774420160.3855276,39
1774420160.4021854,38
1774420160.4195018,37
1774420160.435888,35
1774420160.4533422,34
1774420160.470171,33
1774420160.4858696,32
1774420160.5030086,31
1774420160.5187707,30
1774420160.535897,29
1774420160.5523212,29
1774420160.568795,28
1774420160.5856311,28
1774420160.6023479,28
1774420160.6186671,27
1774420160.6352806,27
1774420160.6520202,27
1774420160.668858,27
1774420160.685312,27
1774420160.7023118,27
1774420160.7205107,27
1774420160.7353294,28
1774420160.752617,30
1774420160.7695436,35
1774420160.7855492,40
1774420160.8025396,46
1774420160.8193014,52
1774420160.8355808,57
1774420160.852139,61
1774420160.868814,62
1774420160.8856168,62
1774420160.902192,60
1774420160.9189973,58
1774420160.9368453,56
1774420160.9535222,53
1774420160.9718485,51
1774420160.9862096,48
1774420161.0022447,46
1774420161.0188613,45
1774420161.0359023,43
1774420161.052658,42
1774420161.0694697,42
1774420161.0854146,42
1774420161.102884,41
1774420161.1187341,41
1774420161.1355674,40
1774420161.152233,40
1774420161.1702082,39
1774420161.1860836,38
1774420161.2019894,36
1774420161.2191007,35
1774420161.2354586,34
1774420161.2522352,33
1774420161.2689753,32
1774420161.2854404,31
1774420161.301917,30
1774420161.3189573,29
1774420161.3359878,29
1774420161.3520334,28
1774420161.3687234,28
1774420161.3863137,27
1774420161.4019206,27
1774420161.418846,27
1774420161.4351413,27
1774420161.4525254,27
1774420161.4688685,27
1774420161.4855413,26
1774420161.502181,26
1774420161.5186732,27
1774420161.5353189,29
1774420161.5522146,32
1774420161.5690691,37
1774420161.585686,42
1774420161.602167,48
1774420161.6192334,54
1774420161.6356676,58
1774420161.6525047,60
1774420161.669665,60
1774420161.685864,59
1774420161.7027571,58
1774420161.7194903,56
1774420161.735614,54
1774420161.7528133,52
1774420161.7686899,50
1774420161.7851498,48
1774420161.8019054,46
1774420161.8186772,44
1774420161.8352437,42
1774420161.8522122,41
1774420161.8685894,40
1774420161.8856304,40
1774420161.9021332,40
1774420161.9186652,40
1774420161.9363124,39
1774420161.9526794,38
1774420161.9687545,37
1774420161.9852626,36
1774420162.003372,35
1774420162.0190706,34
1774420162.0363543,33
1774420162.0521617,32
1774420162.069408,31
1774420162.0851984,30
1774420162.10202,30
1774420162.1187003,29
1774420162.13619,29
1774420162.151939,29
1774420162.1688294,28
1774420162.1854603,28
1774420162.202024,27
1774420162.2186637,27
1774420162.2354481,27
1774420162.2521193,27
1774420162.2701545,26
1774420162.2853568,26
1774420162.3021262,26
1774420162.3194165,28
1774420162.3355818,31
1774420162.352855,35
1774420162.3685474,40
1774420162.3858707,45
1774420162.4020522,51
1774420162.4194584,55
1774420162.4351287,57
1774420162.4521978,58
1774420162.4688108,57
1774420162.4852428,56
1774420162.5025382,54
1774420162.5197008,52
1774420162.5351448,50
1774420162.5522392,49
1774420162.5688922,47
1774420162.5857596,45
1774420162.6018226,43
1774420162.6187193,41
1774420162.635114,40
1774420162.6521838,40
1774420162.6685886,40
1774420162.6857226,39
1774420162.702006,39
1774420162.7187335,38
1774420162.7355695,38
1774420162.7521868,37
1774420162.7690303,36
1774420162.785609,35
1774420162.8018777,34
1774420162.8186831,33
1774420162.835278,32
1774420162.852423,31
1774420162.8690405,30
1774420162.8860388,29
1774420162.9019907,29
1774420162.9199467,28
1774420162.935513,28
1774420162.952393,27
1774420162.9691892,27
1774420162.9858744,27
1774420163.0024369,27
1774420163.018689,27
1774420163.035371,26
1774420163.0518541,26
1774420163.0684564,26
1774420163.0852044,27
1774420163.1021585,28
1774420163.1190815,32
1774420163.135288,36
1774420163.15226,41
1774420163.1695216,46
1774420163.1860702,51
1774420163.2020223,55
1774420163.2186675,56
1774420163.2358022,56
1774420163.2523165,55
1774420163.269289,53
1774420163.2857316,51
1774420163.302413,49
1774420163.3192525,47
1774420163.3353791,45
1774420163.3518653,43
1774420163.3686662,42
1774420163.3857474,40
1774420163.401752,40
1774420163.4192398,40
1774420163.4350271,39
1774420163.4520922,39
1774420163.4693322,38
1774420163.4852376,38
1774420163.5017521,37
1774420163.518706,36
1774420163.535283,35
1774420163.551829,34
1774420163.569275,32
1774420163.585541,31
1774420163.6025908,31
1774420163.6185806,30
1774420163.6361835,29
1774420163.651984,29
1774420163.66884,28
1774420163.6856828,28
1774420163.7019548,27
1774420163.7186553,27
1774420163.7356226,27
1774420163.7520878,27
1774420163.768782,26
1774420163.7861416,26
1774420163.8018563,26
1774420163.819397,25
1774420163.8349984,25
1774420163.8517687,26
1774420163.8688161,28
1774420163.885105,31
1774420163.902356,36
1774420163.9186661,40
1774420163.9355814,46
1774420163.952355,51
1774420163.9685266,54
1774420163.9860063,55
1774420164.0029488,55
1774420164.0189018,53
1774420164.0363777,63
1774420164.051958,59
1774420164.0691316,55
1774420164.0851703,51
1774420164.1018252,47
1774420164.1187766,44
1774420164.1357763,40
1774420164.1517453,39
1774420164.1688874,37
1774420164.1855724,36
1774420164.2020562,35
1774420164.218512,34
1774420164.2349818,33
1774420164.2525034,32
1774420164.2689,31
1774420164.2853246,29
1774420164.3020163,27
1774420164.31939,25
1774420164.3353589,22
1774420164.3523424,20
1774420164.368882,19
1774420164.3853111,17
1774420164.4018593,16
1774420164.4190817,15
1774420164.4357843,14
1774420164.4527028,13
1774420164.4684832,12
1774420164.4856277,12
1774420164.5019894,12
1774420164.5183656,11
1774420164.5361173,11
1774420164.552709,10
1774420164.5685353,10
1774420164.5862913,9
1774420164.602105,10
1774420164.6185076,12
1774420164.635029,18
1774420164.6529305,27
1774420164.6690931,38
1774420164.6858594,49
1774420164.7019773,60
1774420164.7192733,68
1774420164.735349,72
1774420164.751819,73
1774420164.7686281,72
1774420164.785078,68
1774420164.8019996,64
1774420164.818346,60
1774420164.8354752,55
1774420164.8525999,51
1774420164.8685305,47
1774420164.8855338,44
1774420164.9021943,41
1774420164.919138,40
1774420164.936021,38
1774420164.9525616,37
1774420164.9688103,37
1774420164.9853547,36
1774420165.0019403,36
1774420165.0188267,35
1774420165.0353653,33
1774420165.0526214,31
1774420165.0690093,29
1774420165.085362,27
1774420165.1022344,25
1774420165.1190946,23
1774420165.1361241,21
1774420165.1521413,19
1774420165.1687796,18
1774420165.18526,17
1774420165.201817,16
1774420165.2185571,15
1774420165.2355127,14
1774420165.2519772,13
1774420165.2683146,13
1774420165.28528,12
1774420165.302081,12
1774420165.320181,11
1774420165.3362143,10
1774420165.3518445,11
1774420165.3687851,15
1774420165.385639,22
1774420165.40162,32
1774420165.4187534,43
1774420165.434944,55
1774420165.45208,66
1774420165.4684553,73
1774420165.4852173,77
1774420165.502193,77
1774420165.5186205,74
1774420165.5358374,71
1774420165.5523176,67
1774420165.568334,62
1774420165.5850854,58
1774420165.6018062,54
1774420165.6189673,50
1774420165.6350121,46
1774420165.652225,43
1774420165.6684477,41
1774420165.685511,40
1774420165.7018247,40
1774420165.7185051,39
1774420165.7353497,39
1774420165.7522264,38
1774420165.7687786,37
1774420165.7857523,35
1774420165.801934,33
1774420165.8184662,31
1774420165.8349166,28
1774420165.8521342,26
1774420165.8684745,24
1774420165.885083,22
1774420165.9017575,20
1774420165.9183798,19
1774420165.934984,18
1774420165.952078,17
1774420165.9684982,16
1774420165.9860961,15
1774420166.001828,14
1774420166.0184093,13
1774420166.0356765,13
1774420166.0518613,12
1774420166.0685406,12
1774420166.0852177,13
1774420166.1021547,18
1774420166.118616,26
1774420166.13532,36
1774420166.1522584,47
1774420166.1686375,60
1774420166.186787,70
1774420166.2017121,77
1774420166.2185402,80
1774420166.234977,80
1774420166.2525985,77
1774420166.269033,74
1774420166.2850432,70
1774420166.3017638,66
1774420166.318593,62
1774420166.3349397,58
1774420166.3520021,54
1774420166.3687649,50
1774420166.3854916,46
1774420166.4021366,44
1774420166.418923,42
1774420166.4358184,41
1774420166.4530394,40
1774420166.4689307,40
1774420166.485066,39
1774420166.502214,38
1774420166.518361,36
1774420166.5353634,34
1774420166.5524924,32
1774420166.5685713,30
1774420166.5859735,27
1774420166.6023917,25
1774420166.622579,23
1774420166.6371937,22
1774420166.6515248,20
1774420166.6706116,19
1774420166.6908803,18
1774420166.7026007,18
1774420166.718625,17
1774420166.7405703,16
1774420166.7591467,16
1774420166.7689087,15
1774420166.7928402,14
1774420166.8028452,14
1774420166.8187103,14
1774420166.838224,18
1774420166.8551557,24
1774420166.8736165,34
1774420166.8898003,44
1774420166.9018686,57
1774420166.9245734,69
1774420166.935606,77
1774420166.9528527,82
1774420166.9688175,83
1774420166.987039,82
1774420167.0045264,79
1774420167.0181692,75
1774420167.0365303,71
1774420167.0520866,67
1774420167.0689635,63
1774420167.085183,59
1774420167.104749,55
1774420167.1200953,51
1774420167.1382074,47
1774420167.159665,45
1774420167.1702464,43
1774420167.1902406,42
1774420167.203118,41
1774420167.2214332,40
1774420167.2408183,40
1774420167.2575145,39
1774420167.2715268,37
1774420167.2857494,35
1774420167.3030467,32
1774420167.320804,30
1774420167.3353896,27
1774420167.3543744,25
1774420167.3692813,24
1774420167.3856504,22
1774420167.403625,21
1774420167.418147,20
1774420167.4380503,19
1774420167.4532957,18
1774420167.4696276,17
1774420167.489992,17
1774420167.503761,16
1774420167.5189724,16
1774420167.5357544,15
1774420167.5578783,14
1774420167.5759337,15
1774420167.590203,17
1774420167.6036704,23
1774420167.620116,32
1774420167.6399188,43
1774420167.6568005,56
1774420167.672185,69
1774420167.6888306,79
1774420167.7055814,85
1774420167.7192507,87
1774420167.7351892,87
1774420167.7604089,84
1774420167.7688208,80
1774420167.7889621,77
1774420167.8116229,73
1774420167.8183844,68
1774420167.835449,64
1774420167.8545694,59
1774420167.8770573,55
1774420167.8848588,51
1774420167.9032745,48
1774420167.92553,46
1774420167.9421864,44
1774420167.9551618,43
1774420167.9726634,42
1774420167.9902627,41
1774420168.0059414,40
1774420168.0216482,39
1774420168.0379562,36
1774420168.0533106,34
1774420168.0697901,31
1774420168.0860534,29
1774420168.1017807,26
1774420168.1207762,24
1774420168.1361833,23
1774420168.1515284,21
1774420168.1688225,20
1774420168.1865866,19
1774420168.207261,18
1774420168.2180955,17
1774420168.2433596,17
1774420168.2603877,17
1774420168.2711084,16
1774420168.286054,16
1774420168.3074486,15
1774420168.3240795,15
1774420168.3380313,14
1774420168.3556788,15
1774420168.3705058,18
1774420168.386626,25
1774420168.4025147,35
1774420168.4246333,46
1774420168.4355788,60
1774420168.4521163,73
1774420168.4718544,83
1774420168.4886754,88
1774420168.5033512,90
1774420168.5196643,89
1774420168.5437355,86
1774420168.553552,82
1774420168.5731761,78
1774420168.5888383,74
1774420168.602878,70
1774420168.6180832,65
1774420168.6398964,60
1774420168.6518617,56
1774420168.67354,52
1774420168.6890604,48
1774420168.7054615,46
1774420168.7203991,45
1774420168.7353163,43
1774420168.7525127,42
1774420168.7686613,41
1774420168.792823,40
1774420168.8026443,39
1774420168.8203914,36
1774420168.8411882,34
1774420168.8571148,31
1774420168.8681297,29
1774420168.8888087,27
1774420168.9029987,25
1774420168.918647,23
1774420168.93509,21
1774420168.952946,20
1774420168.972999,19
1774420168.9848151,18
1774420169.003217,17
1774420169.0180433,16
1774420169.0374458,16
1774420169.0527933,16
1774420169.0693789,15
1774420169.0854375,15
1774420169.102026,14
1774420169.121025,14
1774420169.1405041,13
1774420169.1568778,14
1774420169.171646,18
1774420169.192815,25
1774420169.2042243,36
1774420169.2215188,48
1774420169.2407749,61
1774420169.2536304,74
1774420169.2725475,84
1774420169.2854545,89
1774420169.3038661,90
1774420169.318423,88
1774420169.3373632,85
1774420169.3566067,81
1774420169.3688207,77
1774420169.3865833,72
1774420169.412235,68
1774420169.4180107,63
1774420169.434738,58
1774420169.4513712,54
1774420169.4708617,50
1774420169.4852839,47
1774420169.506798,45
1774420169.5204577,43
1774420169.539657,42
1774420169.5592139,41
1774420169.573729,40
1774420169.5851712,39
1774420169.603311,37
1774420169.6217945,35
1774420169.6397934,32
1774420169.654691,30
1774420169.6745765,27
1774420169.6899397,25
1774420169.703889,23
1774420169.7197368,21
1774420169.738876,20
1774420169.7547581,18
1774420169.7688022,17
1774420169.7858157,16
1774420169.802717,15
1774420169.8181536,15
1774420169.8374045,14
1774420169.8596697,14
1774420169.8736286,13
1774420169.8936944,13
1774420169.9028716,13
1774420169.9236922,12
1774420169.9437125,12
1774420169.960381,11
1774420169.9691389,12
1774420169.9854913,16
1774420170.0085423,23
1774420170.0247753,35
1774420170.0363367,47
1774420170.0588827,61
1774420170.072862,74
1774420170.089938,84
1774420170.1035886,89
1774420170.118651,89
1774420170.1368144,87
1774420170.1528132,83
1774420170.1697106,78
1774420170.1853235,74
1774420170.2027793,69
1774420170.2180712,65
1774420170.2430747,61
1774420170.2513287,57
1774420170.2687,53
1774420170.2874484,50
1774420170.304729,48
1774420170.3239,47
1774420170.339074,47
1774420170.3604991,46
1774420170.370615,45
1774420170.3889823,44
1774420170.4065547,42
1774420170.418355,40
1774420170.4376996,38
1774420170.4564009,35
1774420170.4715686,31
1774420170.4887726,28
1774420170.504808,26
1774420170.520816,23
1774420170.5368023,21
1774420170.5527947,19
1774420170.570274,18
1774420170.5851002,17
1774420170.6013541,17
1774420170.618062,17
1774420170.6437328,17
1774420170.6513295,17
1774420170.6731992,17
1774420170.6903994,17
1774420170.7019782,16
1774420170.728436,16
1774420170.735135,15
1774420170.7549405,13
1774420170.7742102,13
1774420170.7911096,15
1774420170.8073528,20
1774420170.8234158,29
1774420170.839795,41
1774420170.856314,55
1774420170.869776,70
1774420170.8879037,81
1774420170.9047668,89
1774420170.9183004,92
1774420170.9373848,91
1774420170.9521654,87
1774420170.96833,83
1774420170.984795,77
1774420171.0047977,72
1774420171.0182521,67
1774420171.0392494,62
1774420171.0530186,58
1774420171.0686207,53
1774420171.0860665,49
1774420171.102205,46
1774420171.1200778,43
1774420171.1363947,42
1774420171.159265,41
1774420171.1733904,40
1774420171.1906555,40
1774420171.2023287,38
1774420171.2229457,36
1774420171.2379408,34
1774420171.2539823,31
1774420171.2704954,28
1774420171.285885,25
1774420171.3017087,23
1774420171.3180923,20
1774420171.3381827,18
1774420171.3538997,17
1774420171.3689678,15
1774420171.3848124,14
1774420171.401995,13
1774420171.41979,12
1774420171.4393206,11
1774420171.4518452,11
1774420171.4767218,10
1774420171.4894142,10
1774420171.501987,10
1774420171.523595,10
1774420171.5359762,10
1774420171.5575612,10
1774420171.5700638,9
1774420171.5860128,9
1774420171.6053169,8
1774420171.6214826,9
1774420171.6366057,12
1774420171.6531394,20
1774420171.6688607,32
1774420171.6887648,45
1774420171.7048104,61
1774420171.7223861,75
1774420171.7354689,87
1774420171.7528138,93
1774420171.7698789,94
1774420171.7847855,91
1774420171.8031015,87
1774420171.8188424,81
1774420171.8435733,75
1774420171.8546717,69
1774420171.872032,64
1774420171.8921568,59
1774420171.905411,54
1774420171.92298,50
1774420171.9380808,46
1774420171.9561367,44
1774420171.9691527,43
1774420171.9861176,42
1774420172.0026424,42
1774420172.0195043,41
1774420172.0347204,40
1774420172.053937,39
1774420172.0728638,37
1774420172.08594,34
1774420172.1035082,31
1774420172.118747,29
1774420172.1351402,26
1774420172.1528127,23
1774420172.1688116,21
1774420172.1856227,19
1774420172.2016366,18
1774420172.225098,16
1774420172.2371485,15
1774420172.2568557,14
1774420172.2751167,13
1774420172.284539,12
1774420172.3075984,12
1774420172.3221796,11
1774420172.3376656,11
1774420172.3536844,11
1774420172.3694417,11
1774420172.3857126,10
1774420172.4014792,10
1774420172.4198492,9
1774420172.4379365,9
1774420172.4550817,13
1774420172.4727702,21
1774420172.4852507,32
1774420172.503673,46
1774420172.5208154,62
1774420172.5350015,78
1774420172.5537128,90
1774420172.5680475,97
1774420172.5848105,99
1774420172.6084225,97
1774420172.6181655,93
1774420172.6348562,63
1774420172.6511836,60
1774420172.6701505,57
1774420172.6845233,54
1774420172.705178,51
1774420172.7212453,49
1774420172.7372978,46
1774420172.753256,45
1774420172.769285,43
1774420172.7856178,42
1774420172.8094773,42
1774420172.8221147,42
1774420172.835495,41
1774420172.8567693,41
1774420172.8695164,40
1774420172.8887658,40
1774420172.9047549,39
1774420172.9194033,37
1774420172.9377525,36
1774420172.9528012,35
1774420172.968794,33
1774420172.9848034,32
1774420173.0064864,31
1774420173.0193734,30
1774420173.0387478,29
1774420173.052327,28
1774420173.0712848,28
1774420173.0849345,27
1774420173.1019049,27
1774420173.1187067,27
1774420173.1347833,26
1774420173.153448,26
1774420173.1751177,26
1774420173.1927986,26
1774420173.2049546,25
1774420173.2247937,25
1774420173.2369077,25
1774420173.257985,26
1774420173.2728612,29
1774420173.2886271,34
1774420173.3048034,40
1774420173.317958,47
1774420173.340298,56
1774420173.3528368,63
1774420173.3687885,67
1774420173.384786,70
1774420173.4050462,69
1774420173.417816,68
1774420173.4392722,65
1774420173.4517775,62
1774420173.4705222,59
1774420173.4937103,56
1774420173.501861,53
1774420173.5226712,50
1774420173.5349255,48
1774420173.5583036,46
1774420173.571525,44
1774420173.5865543,43
1774420173.6011405,42
1774420173.6247973,42
1774420173.637272,41
1774420173.6562867,41
1774420173.672684,40
1774420173.6873167,40
1774420173.7029066,39
1774420173.7203887,38
1774420173.7365038,37
1774420173.7527595,35
1774420173.7709377,34
1774420173.7896714,33
1774420173.8106337,32
1774420173.8179288,30
1774420173.8418138,30
1774420173.8577943,29
1774420173.8680708,28
1774420173.893092,28
1774420173.9044316,27
1774420173.92687,27
1774420173.9375834,27
1774420173.9588327,27
1774420173.971922,26
1774420173.9927611,26
1774420174.0047832,26
1774420174.0212188,26
1774420174.0389857,26
1774420174.054873,26
1774420174.0712535,27
1774420174.0872653,30
1774420174.1016088,36
1774420174.1192112,42
1774420174.1352105,50
1774420174.1539547,58
1774420174.1687891,65
1774420174.1848617,69
1774420174.2077694,71
1774420174.2190855,70
1774420174.2428186,68
1774420174.2608612,65
1774420174.2722318,62
1774420174.2890887,59
1774420174.3042357,56
1774420174.3236744,53
1774420174.3382444,51
1774420174.3540158,49
1774420174.3715408,47
1774420174.3876607,45
1774420174.4035726,45
1774420174.4192457,44
1774420174.4347138,44
1774420174.451197,43
1774420174.4728155,43
1774420174.4887493,42
1774420174.5047996,41
1774420174.521511,41
1774420174.5421684,40
1774420174.552795,40
1774420174.5687985,39
1774420174.5848548,38
1774420174.603509,37
1774420174.6203587,37
1774420174.6348403,36
1774420174.6563234,36
1774420174.6738002,36
1774420174.6896064,36
1774420174.7014346,36
1774420174.7256186,35
1774420174.7385535,35
1774420174.7536824,35
1774420174.776616,35
1774420174.7864969,35
1774420174.8021357,34
1774420174.8272135,34
1774420174.8346763,34
1774420174.8554678,33
1774420174.877326,33
1774420174.889603,34
1774420174.9047952,37
1774420174.9186573,40
1774420174.9368556,47
1774420174.9522567,54
1774420174.9687872,61
1774420174.9856713,67
1774420175.001901,70
1774420175.0230584,71
1774420175.0354908,70
1774420175.055562,67
1774420175.0704937,64
1774420175.0864503,61
1774420175.1018794,58
1774420175.118614,55
1774420175.1349344,52
1774420175.1564066,49
1774420175.1703522,47
1774420175.1914573,45
1774420175.202819,44
1774420175.2247753,43
1774420175.2347918,42
1774420175.2567763,42
1774420175.2727504,41
1774420175.288838,41
1774420175.3059502,40
1774420175.3207572,40
1774420175.3347852,39
1774420175.3568301,38
1774420175.368743,36
1774420175.3848047,35
1774420175.4015844,34
1774420175.4201841,33
1774420175.4343603,32
1774420175.4531097,31
1774420175.4692566,30
1774420175.4933412,30
1774420175.5052137,29
1774420175.5233974,29
1774420175.5363765,28
1774420175.551163,28
1774420175.5703454,28
1774420175.5913298,28
1774420175.601671,27
1774420175.6221132,27
1774420175.6381752,27
1774420175.6567667,26
1774420175.6693065,26
1774420175.6908805,28
1774420175.704782,31
1774420175.7183304,36
1774420175.737813,41
1774420175.752786,49
1774420175.7687712,57
1774420175.784972,63
1774420175.8019302,67
1774420175.819005,68
1774420175.8345048,68
1774420175.8566403,65
1774420175.8730798,63
1774420175.8936977,60
1774420175.909041,57
1774420175.9271326,54
1774420175.9387624,51
1774420175.956576,48
1774420175.9739532,46
1774420175.987932,45
1774420176.0047815,43
1774420176.0199852,42
1774420176.0398939,42
1774420176.053107,42
1774420176.0690725,41
1774420176.089828,41
1774420176.102721,40
1774420176.1193209,40
1774420176.1367598,39
1774420176.1527982,38
1774420176.168923,36
1774420176.18603,35
1774420176.2018943,34
1774420176.217945,33
1774420176.2343194,32
1774420176.2575314,31
1774420176.267759,30
1774420176.2965872,29
1774420176.3074172,29
1774420176.3208797,28
1774420176.3417132,28
1774420176.3584106,28
1774420176.3691413,28
1774420176.392786,27
1774420176.4038348,27
1774420176.4247925,27
1774420176.4371626,26
1774420176.4519575,26
1774420176.4706383,27
1774420176.4876442,30
1774420176.5036097,34
1774420176.5196972,40
1774420176.5356712,47
1774420176.5516603,55
1774420176.5705087,61
1774420176.5848007,66
1774420176.6017833,68
1774420176.6286955,68
1774420176.6344585,66
1774420176.6551476,63
1774420176.6734886,60
1774420176.6847174,57
1774420176.7030702,54
1774420176.7185585,51
1774420176.7383325,49
1774420176.759775,47
1774420176.768017,45
1774420176.7845764,43
1774420176.807093,43
1774420176.8237836,42
1774420176.838845,42
1774420176.8545198,42
1774420176.8704464,41
1774420176.8874626,41
1774420176.902581,40
1774420176.924306,40
1774420176.935226,38
1774420176.9527812,37
1774420176.9687643,36
1774420176.993762,34
1774420177.0016203,33
1774420177.0205905,32
1774420177.0342917,31
1774420177.0606937,31
1774420177.0676365,30
1774420177.0844703,30
1774420177.1012359,29
1774420177.1198366,29
1774420177.1352885,29
1774420177.1549196,28
1774420177.1744576,28
1774420177.1906233,28
1774420177.206349,28
1774420177.218946,27
1774420177.2359233,28
1774420177.2535453,30
1774420177.273071,34
1774420177.2854216,40
1774420177.3012676,46
1774420177.32007,53
1774420177.3345757,60
1774420177.352812,65
1774420177.36949,67
1774420177.3851995,67
1774420177.4020252,66
1774420177.4245002,64
1774420177.4355395,61
1774420177.4567406,58
1774420177.4711726,55
1774420177.490175,52
1774420177.5018866,50
1774420177.5218601,47
1774420177.536205,45
1774420177.5558238,44
1774420177.5707803,43
1774420177.593943,42
1774420177.602845,42
1774420177.6188524,42
1774420177.6378052,41
1774420177.6565907,41
1774420177.6711082,40
1774420177.6899807,40
1774420177.704784,39
1774420177.7207985,37
1774420177.736837,36
1774420177.7604237,35
1774420177.7687879,34
1774420177.7848325,33
1774420177.8019753,32
1774420177.8255174,31
1774420177.8344438,30
1774420177.8578362,30
1774420177.8734307,30
1774420177.8893936,29
1774420177.9027781,29
1774420177.920168,29
1774420177.937494,29
1774420177.9534667,28
1774420177.9694366,28
1774420177.9853985,28
1774420178.0027223,28
1774420178.0178833,29
1774420178.0346775,31
1774420178.0510015,36
1774420178.0727887,41
1774420178.0869963,48
1774420178.1028929,55
1774420178.1192575,62
1774420178.1373386,66
1774420178.1527932,68
1774420178.1697922,67
1774420178.184822,66
1774420178.2023516,64
1774420178.2253544,61
1774420178.2342925,58
1774420178.2564106,56
1774420178.2676117,53
1774420178.2890987,50
1774420178.305373,48
1774420178.327288,46
1774420178.3358564,44
1774420178.3534753,43
1774420178.3703454,42
1774420178.3860185,42
1774420178.401453,41
1774420178.4220896,41
1774420178.4407804,40
1774420178.4567409,40
1774420178.4727662,39
1774420178.493773,38
1774420178.5034025,36
1774420178.5207984,35
1774420178.5367303,34
1774420178.556308,33
1774420178.567825,32
1774420178.5860982,31
1774420178.6053145,31
1774420178.6189206,30
1774420178.6366773,30
1774420178.656596,29
1774420178.6702204,29
1774420178.6845953,29
1774420178.704499,29
1774420178.7202966,29
1774420178.7365432,28
1774420178.7603729,28
1774420178.7694733,28
1774420178.7847786,27
1774420178.801938,28
1774420178.8179638,30
1774420178.837757,34
1774420178.8567522,39
1774420178.8699677,45
1774420178.891931,52
1774420178.903701,59
1774420178.9208224,64
1774420178.9368036,66
1774420178.9540155,67
1774420178.9687548,66
1774420178.9847627,63
1774420179.0047169,61
1774420179.0227292,58
1774420179.0342703,56
1774420179.0548372,53
1774420179.0710568,51
1774420179.08692,48
1774420179.1020696,46
1774420179.1186862,44
1774420179.1392162,43
1774420179.1594265,42
1774420179.1685448,41
1774420179.187305,41
1774420179.2079082,40
1774420179.2183032,40
1774420179.2387059,40
1774420179.2592883,39
1774420179.2693334,38
1774420179.2914677,36
1774420179.3064744,35
1774420179.320767,34
1774420179.3368573,33
1774420179.3545723,32
1774420179.370227,32
1774420179.3847964,31
1774420179.401587,30
1774420179.4185061,30
1774420179.4341977,29
1774420179.4511418,29
1774420179.4702625,29
1774420179.4937568,29
1774420179.5069563,29
1774420179.5188823,28
1774420179.5389855,28
1774420179.560369,28
1774420179.5689578,28
1774420179.5861127,27
1774420179.6097953,27
1774420179.6195183,29
1774420179.640454,33
1774420179.6567912,38
1774420179.672805,44
1774420179.6859999,51
1774420179.7056122,58
1774420179.7214198,63
1774420179.7367744,66
1774420179.753537,67
1774420179.7689917,66
1774420179.7848012,63
1774420179.8010266,61
1774420179.8254125,58
1774420179.8343172,56
1774420179.8560011,53
1774420179.8675406,50
1774420179.8934474,48
1774420179.9088783,46
1774420179.9230535,44
1774420179.9342208,42
1774420179.951079,41
1774420179.9734952,41
1774420179.9914544,41
1774420180.0079584,41
1774420180.0240161,40
1774420180.0394945,40
1774420180.0557175,39
1774420180.0712087,38
1774420180.0887377,37
1774420180.1013193,36
1774420180.118826,34
1774420180.1367476,33
1774420180.152,32
1774420180.1716063,31
1774420180.184769,31
1774420180.2047036,30
1774420180.2248163,29
1774420180.2341108,29
1774420180.255325,28
1774420180.27161,28
1774420180.285363,28
1774420180.3032472,28
1774420180.3332317,28
1774420180.338811,28
1774420180.3509958,27
1774420180.373606,27
1774420180.389529,27
1774420180.4013472,27
1774420180.420157,28
1774420180.4367087,32
1774420180.4547148,37
1774420180.4711506,43
1774420180.4870186,50
1774420180.503119,57
1774420180.5207384,62
1774420180.5363019,65
1774420180.5568538,66
1774420180.5692906,65
1774420180.585485,63
1774420180.6016898,61
1774420180.626458,58
1774420180.6340895,55
1774420180.6604075,53
1774420180.6690826,50
1774420180.684175,48
1774420180.701531,46
1774420180.7219734,44
1774420180.7419987,43
1774420180.755797,42
1774420180.7740276,41
1774420180.7884846,41
1774420180.8049037,41
1774420180.8211293,40
1774420180.8368223,40
1774420180.8529015,39
1774420180.8676083,38
1774420180.8844929,37
1774420180.9023015,36
1774420180.9251244,34
1774420180.9368114,33
1774420180.9527915,32
1774420180.9702532,32
1774420180.9897947,31
1774420181.0015447,30
1774420181.0205114,30
1774420181.044029,29
1774420181.0509603,29
1774420181.0758135,29
1774420181.084693,28
1774420181.101513,28
1774420181.1178403,28
1774420181.1353886,28
1774420181.156677,28
1774420181.1719987,28
1774420181.186367,27
1774420181.2023592,27
1774420181.2272522,28
1774420181.2354512,31
1774420181.2514746,35
1774420181.2676833,40
1774420181.2865658,47
1774420181.3047698,55
1774420181.3207855,61
1774420181.3367784,65
1774420181.3573895,66
1774420181.368729,66
1774420181.3936973,65
1774420181.4015918,62
1774420181.419585,60
1774420181.4425302,58
1774420181.450874,55
1774420181.468178,52
1774420181.484106,50
1774420181.5060716,48
1774420181.5194652,46
1774420181.5351913,44
1774420181.5529788,43
1774420181.5689023,42
1774420181.585631,42
1774420181.6024654,41
1774420181.6179268,41
1774420181.6418,40
1774420181.6531448,40
1774420181.6718118,39
1774420181.688816,37
1774420181.704811,36
1774420181.7207572,35
1774420181.736525,33
1774420181.7594047,33
1774420181.768752,32
1774420181.7846954,31
1774420181.808093,30
1774420181.8176596,30
1774420181.8385365,30
1774420181.851473,29
1774420181.8708708,29
1774420181.8865488,29
1774420181.9028516,28
1774420181.9238608,28
1774420181.9343293,28
1774420181.9515939,28
1774420181.973897,27
1774420181.989706,27
1774420182.0021987,27
1774420182.0247586,27
1774420182.0408285,30
1774420182.059084,34
1774420182.0709188,40
1774420182.0846565,45
1774420182.1015458,52
1774420182.1207306,58
1774420182.13677,61
1774420182.1544926,63
1774420182.1687412,63
1774420182.1867769,61
1774420182.2091389,59
1774420182.2180214,57
1774420182.2360413,55
1774420182.2533092,52
1774420182.269372,50
1774420182.2840936,47
1774420182.310246,45
1774420182.3175347,43
1774420182.3346257,41
1774420182.3572557,40
1774420182.3718655,40
1774420182.3855388,40
1774420182.4052837,39
1774420182.4250445,39
1774420182.438136,38
1774420182.4537337,37
1774420182.4741092,36
1774420182.4887652,35
1774420182.5050168,33
1774420182.5196083,32
1774420182.5378687,31
1774420182.5532641,30
1774420182.5780954,29
1774420182.5848062,29
1774420182.6007879,28
1774420182.6184347,28
1774420182.634576,27
1774420182.6552262,27
1774420182.6692538,27
1774420182.6859777,27
1774420182.706785,27
1774420182.720249,27
1774420182.738174,26
1774420182.7537107,26
1774420182.770137,26
1774420182.788469,25
1774420182.802251,26
1774420182.817365,27
1774420182.8415334,30
1774420182.8550627,35
1774420182.873474,40
1774420182.888734,47
1774420182.9060876,53
1774420182.9201884,57
1774420182.9367757,60
1774420182.9531243,61
1774420182.9682186,60
1774420182.9851892,58
1774420183.0007157,56
1774420183.0186386,54
1774420183.0433679,51
1774420183.0506861,49
1774420183.0691984,47
1774420183.0848505,45
1774420183.1009605,43
1774420183.12028,41
1774420183.142372,40
1774420183.153901,40
1774420183.1681032,39
1774420183.18732,39
1774420183.208876,39
1774420183.219877,38
1774420183.237959,38
1774420183.2519581,37
1774420183.2699597,35
1774420183.285997,34
1774420183.3019836,33
1774420183.317728,32
1774420183.3368008,31
1774420183.3511257,30
1774420183.376269,29
1774420183.3847737,28
1774420183.4044092,28
1774420183.4176974,27
1774420183.4422534,27
1774420183.4556553,27
1774420183.4762983,26
1774420183.4875522,26
1774420183.5065448,26
1774420183.5174649,26
1774420183.541554,25
1774420183.552519,25
1774420183.5676897,25
1774420183.5845556,25
1774420183.6051075,27
1774420183.6203008,30
1774420183.6370463,35
1774420183.6559503,40
1774420183.6695309,46
1774420183.6887348,52
1774420183.701401,56
1774420183.7206368,58
1774420183.7367868,58
1774420183.753753,57
1774420183.7687888,55
1774420183.784243,53
1774420183.8007421,51
1774420183.8182342,49
1774420183.841597,47
1774420183.850576,45
1774420183.8770175,43
1774420183.8912818,41
1774420183.9058359,40
1774420183.9197845,40
1774420183.9380014,39
1774420183.9561343,39
1774420183.9674952,38
1774420183.9857504,38
1774420184.0050726,37
1774420184.0211177,37
1774420184.0363195,36
1774420184.0513937,35
1774420184.0692363,33
1774420184.0851114,32
1774420184.103923,31
1774420184.1254992,30
1774420184.1339166,29
1774420184.151848,29
1774420184.1792705,28
1774420184.1856868,28
1774420184.2007573,27
1774420184.217506,27
1774420184.2419705,27
1774420184.2505565,27
1774420184.2751563,27
1774420184.289366,26
1774420184.3024573,26
1774420184.3174417,26
1774420184.343748,26
1774420184.354221,27
1774420184.369082,29
1774420184.3843257,33
1774420184.4010024,39
1774420184.4202554,44
1774420184.4349449,50
1774420184.4567337,54
1774420184.4727669,57
1774420184.4934547,59
1774420184.5047934,58
1774420184.521553,57
1774420184.5367756,56
1774420184.5527422,54
1774420184.5687504,52
1774420184.5856466,50
1774420184.6007776,48
1774420184.6223528,46
1774420184.640049,44
1774420184.6506681,42
1774420184.6719704,41
1774420184.6840622,40
1774420184.7031434,40
1774420184.7190626,40
1774420184.7389166,40
1774420184.755609,39
1774420184.7692313,39
1774420184.7881067,38
1774420184.8089345,37
1774420184.8247285,36
1774420184.839381,35
1774420184.8543806,33
1774420184.8723707,32
1774420184.890743,32
1774420184.9099023,31
1774420184.9190555,30
1774420184.941692,30
1774420184.9523168,29
1774420184.9727654,29
1774420184.9856288,29
1774420185.0039573,28
1774420185.0171916,28
1774420185.037849,28
1774420185.0508645,28
1774420185.0683012,27
1774420185.0843115,27
1774420185.1011155,27
1774420185.1224413,29
1774420185.1379106,32
1774420185.160286,37
1774420185.1681523,41
1774420185.189589,47
1774420185.2087185,52
1774420185.222354,56
1774420185.2365015,58
1774420185.2517107,59
1774420185.2672827,58
1774420185.2887247,57
1774420185.3055842,55
1774420185.3207994,54
1774420185.339961,52
1774420185.3518403,50
1774420185.3684554,48
1774420185.3847685,45
1774420185.40339,43
1774420185.4173672,42
1774420185.4412186,40
1774420185.4504707,40
1774420185.4675775,40
1774420185.488611,40
1774420185.507221,39
1774420185.523132,39
1774420185.541701,38
1774420185.5540445,37
1774420185.5770612,36
1774420185.5874944,35
1774420185.6087213,34
1774420185.6174166,33
1774420185.6408281,32
1774420185.6560102,31
1774420185.6750047,31
1774420185.6845143,30
1774420185.7069895,29
1774420185.7190356,29
1774420185.7353919,29
1774420185.7527478,28
1774420185.7687538,28
1774420185.7863936,28
1774420185.8007927,28
1774420185.817795,27
1774420185.8342957,27
1774420185.8504748,27
1774420185.8770406,27
1774420185.8872533,29
1774420185.9127188,33
1774420185.9181776,38
1774420185.9357877,43
1774420185.9551492,48
1774420185.9720802,53
1774420185.992783,57
1774420186.0087423,58
1774420186.0228662,58
1774420186.0341928,57
1774420186.056886,56
1774420186.0694857,54
1774420186.0890095,52
1774420186.1014662,50
1774420186.1196313,48
1774420186.1406069,46
1774420186.153493,44
1774420186.1685307,42
1774420186.1850903,40
1774420186.2098856,40
1774420186.2175236,40
1774420186.2366674,39
1774420186.250428,39
1774420186.2757757,39
1774420186.2854671,38
1774420186.3113956,37
1774420186.3172603,36
1774420186.3368945,35
1774420186.3593667,34
1774420186.370596,33
1774420186.3915303,32
1774420186.407141,31
1774420186.422524,30
1774420186.434472,29
1774420186.4542198,29
1774420186.4746792,28
1774420186.4895155,28
1774420186.5042102,27
1774420186.5174947,27
1774420186.5370657,27
1774420186.5514834,27
1774420186.5687332,26
1774420186.583918,26
1774420186.6007574,26
1774420186.6176481,26
1774420186.63797,27
1774420186.6505957,30
1774420186.6770444,35
1774420186.691374,40
1774420186.7090662,45
1774420186.7219808,50
1774420186.7340012,54
1774420186.75093,56
1774420186.7753756,57
1774420186.7908695,56
1774420186.8065524,55
1774420186.8202531,53
1774420186.8348794,51
1774420186.8514965,49
1774420186.8708713,47
1774420186.88785,45
1774420186.9080675,42
1774420186.9182937,40
1774420186.9341652,40
1774420186.9527931,39
1774420186.968721,38
1774420186.9847567,38
1774420187.0007582,37
1774420187.0182407,37
1774420187.0379336,37
1774420187.0503936,36
1774420187.0729337,35
1774420187.0846593,34
1774420187.1006668,33
1774420187.124406,31
1774420187.1349614,30
1774420187.158141,29
1774420187.1740303,28
1774420187.1843848,28
1774420187.201207,27
1774420187.2207708,27
1774420187.238083,26
1774420187.2530992,26
1774420187.2680562,26
1774420187.2845583,25
1774420187.3020394,25
1774420187.318126,25
1774420187.3369865,24
1774420187.3527393,24
1774420187.368757,25
1774420187.3838341,27
1774420187.4007676,30
1774420187.4179473,35
1774420187.4429524,40
1774420187.4604173,45
1774420187.4721618,50
1774420187.4876678,53
1774420187.5069492,55
1774420187.5270998,55
1774420187.5410473,54
1774420187.5570006,53
1774420187.5704691,51
1774420187.5910301,49
1774420187.60512,47
1774420187.6182482,45
1774420187.643751,43
1774420187.6512601,41
1774420187.6690404,40
1774420187.6853065,39
1774420187.7047703,38
1774420187.717358,37
1774420187.7420697,37
1774420187.7504249,37
1774420187.7687714,36
1774420187.7852259,36
1774420187.8007696,35
1774420187.8191714,34
1774420187.8375874,33
1774420187.8503551,32
1774420187.870354,31
1774420187.8920896,30
1774420187.9026542,29
1774420187.9211724,28
1774420187.9341419,27
1774420187.960205,27
1774420187.967681,26
1774420187.984231,26
1774420188.0025504,26
1774420188.0185313,25
1774420188.0394397,25
1774420188.0506964,25
1774420188.073916,25
1774420188.084772,24
1774420188.1021998,24
1774420188.118091,24
1774420188.1360857,25
1774420188.1527157,27
1774420188.1701207,31
1774420188.1885135,36
1774420188.2091198,40
1774420188.2177072,46
1774420188.241088,51
1774420188.2556877,54
1774420188.2727644,56
1774420188.289155,56
1774420188.3083873,55
1774420188.3189201,53
1774420188.3370752,52
1774420188.353094,50
1774420188.3690898,48
1774420188.3840988,46
1774420188.4005334,44
1774420188.4257407,42
1774420188.4408047,41
1774420188.4576955,40
1774420188.467523,39
1774420188.4887578,38
1774420188.5047593,38
1774420188.5207956,38
1774420188.5392802,37
1774420188.5505016,37
1774420188.568765,36
1774420188.5847652,35
1774420188.603629,34
1774420188.6214597,33
1774420188.6378403,32
1774420188.6506636,31
1774420188.6669734,30
1774420188.6881473,29
1774420188.7008736,28
1774420188.7171383,28
1774420188.7389479,27
1774420188.75119,27
1774420188.7695224,27
1774420188.7838972,26
1774420188.8023326,26
1774420188.8184557,26
1774420188.8443143,26
1774420188.8544881,26
1774420188.8699934,25
1774420188.8887017,25
1774420188.9070957,26
1774420188.919464,27
1774420188.9369447,31
1774420188.9529803,36
1774420188.9689484,40
1774420188.9847422,46
1774420189.0014515,51
1774420189.0197783,55
1774420189.0338147,57
1774420189.0522187,57
1774420189.0670156,56
1774420189.0843596,55
1774420189.100412,53
1774420189.1189375,52
1774420189.1415854,50
1774420189.1505182,48
1774420189.1672575,46
1774420189.1854932,44
1774420189.2003548,42
1774420189.21949,40
1774420189.2407117,40
1774420189.2572997,40
1774420189.2713823,39
1774420189.288815,39
1774420189.307468,38
1774420189.3181634,38
1774420189.3374207,37
1774420189.3527806,36
1774420189.3715446,35
1774420189.385333,34
1774420189.4017508,33
1774420189.419485,32
1774420189.433753,31
1774420189.4516377,30
1774420189.466917,29
1774420189.4839153,28
1774420189.5002747,28
1774420189.5229542,27
1774420189.5353053,27
1774420189.552701,27
1774420189.568383,26
1774420189.5877445,26
1774420189.6079926,26
1774420189.6177166,26
1774420189.643036,26
1774420189.6517265,25
1774420189.6727095,25
1774420189.6887226,25
1774420189.709822,27
1774420189.7201076,30
1774420189.73676,35
1774420189.7551425,40
1774420189.771969,46
1774420189.7855768,52
1774420189.800755,56
1774420189.818144,59
1774420189.8345528,59
1774420189.8550828,58
1774420189.8670495,57
1774420189.8875945,55
1774420189.9078422,53
1774420189.917542,51
1774420189.9359086,49
1774420189.9558458,47
1774420189.9722252,45
1774420189.9919806,43
1774420190.0068676,41
1774420190.021031,40
1774420190.0404284,40
1774420190.0554726,40
1774420190.0723248,40
1774420190.0873587,40
1774420190.1027832,39
1774420190.1174917,38
1774420190.1373029,37
1774420190.1603427,36
1774420190.170453,35
1774420190.1846793,34
1774420190.2007563,33
1774420190.2218783,32
1774420190.2335958,31
1774420190.2603657,30
1774420190.2668674,29
1774420190.2873747,29
1774420190.3017914,28
1774420190.323758,28
1774420190.3397799,27
1774420190.355858,27
1774420190.369578,27
1774420190.3879213,27
1774420190.4037297,27
1774420190.4213312,26
1774420190.435157,26
1774420190.4509003,26
1774420190.4674404,26
1774420190.486342,28
1774420190.5016997,31
1774420190.5255399,36
1774420190.5340488,41
1774420190.552789,48
1774420190.569649,54
1774420190.5862107,58
1774420190.6003358,61
1774420190.6257126,61
1774420190.6385956,60
1774420190.6577954,58
1774420190.6680183,56
1774420190.6899004,54
1774420190.7047737,52
1774420190.7174368,50
1774420190.737671,47
1774420190.7530344,45
1774420190.7687469,43
1774420190.7857125,42
1774420190.8006942,41
1774420190.8225105,40
1774420190.833797,40
1774420190.8529406,40
1774420190.8727238,40
1774420190.8895023,40
1774420190.9047132,39
1774420190.9207125,38
1774420190.936737,37
1774420190.9549825,36
1774420190.9689097,35
1774420190.9872568,33
1774420191.0019238,32
1774420191.018039,31
1774420191.0367393,31
1774420191.0562701,30
1774420191.0699701,29
1774420191.0872083,29
1774420191.1011548,29
1774420191.1180124,28
1774420191.1335156,28
1774420191.1561193,28
1774420191.1726463,28
1774420191.1839302,27
1774420191.2020679,27
1774420191.2248108,27
1774420191.2397828,27
1774420191.250168,28
1774420191.272804,31
1774420191.2838578,36
1774420191.3055735,40
1774420191.317581,47
1774420191.3365376,53
1774420191.3565714,59
1774420191.368071,62
1774420191.3886173,63
1774420191.4007108,62
1774420191.4205096,61
1774420191.4363067,59
1774420191.4522293,57
1774420191.4683955,54
1774420191.4886832,52
1774420191.500329,50
1774420191.5203612,48
1774420191.5436604,46
1774420191.5580537,44
1774420191.5735433,43
1774420191.5844772,42
1774420191.6063645,42
1774420191.621103,41
1774420191.6382241,41
1774420191.6570647,40
1774420191.6745887,40
1774420191.6952968,39
1774420191.705497,38
1774420191.7207248,37
1774420191.737321,36
1774420191.7517679,34
1774420191.768138,33
1774420191.793706,32
1774420191.8021052,31
1774420191.817942,31
1774420191.8384724,30
1774420191.8604574,30
1774420191.8668926,30
1774420191.8849335,29
1774420191.9001033,29
1774420191.916804,29
1774420191.943137,29
1774420191.9579585,28
1774420191.976706,28
1774420191.9934955,28
1774420192.0086977,28
1774420192.0197003,30
1774420192.037895,34
1774420192.053443,39
1774420192.0727084,45
1774420192.085643,52
1774420192.1017866,57
1774420192.1180835,61
1774420192.136728,63
1774420192.1528754,63
1774420192.1687279,62
1774420192.18592,60
1774420192.2001665,58
1774420192.2180169,55
1774420192.2335293,53
1774420192.2522042,50
1774420192.2678535,48
1774420192.2861803,46
1774420192.3014116,44
1774420192.320429,43
1774420192.333509,42
1774420192.3572989,41
1774420192.3769095,41
1774420192.3834658,41
1774420192.4087963,40
1774420192.4221046,40
1774420192.4371462,40
1774420192.4505618,39
1774420192.4683554,37
1774420192.4845698,36
1774420192.5042932,35
1774420192.5197084,34
1774420192.537479,33
1774420192.5525458,32
1774420192.5676982,31
1774420192.5840037,30
1774420192.6016543,30
1774420192.6270063,29
1774420192.6335328,29
1774420192.6552076,29
1774420192.6770349,28
1774420192.6854663,28
1774420192.706336,27
1774420192.7183132,28
1774420192.7427344,29
1774420192.75239,33
1774420192.7700284,38
1774420192.7896452,43
1774420192.805019,50
1774420192.8207138,56
1774420192.8338192,61
1774420192.8511474,64
1774420192.869137,64
1774420192.8853319,63
1774420192.905267,61
1774420192.920796,59
1774420192.9367917,56
1774420192.9516697,54
1774420192.9686992,51
1774420192.9847186,49
1774420193.00074,47
1774420193.0218377,45
1774420193.0340545,44
1774420193.0582025,43
1774420193.0683992,42
1774420193.084182,42
1774420193.1021223,42
1774420193.125206,41
1774420193.1355062,41
1774420193.1516728,40
1774420193.1731722,40
1774420193.1877549,38
1774420193.2052574,37
1774420193.2212198,36
1774420193.237212,34
1774420193.2534804,33
1774420193.2671924,32
1774420193.2852976,32
1774420193.3011947,31
1774420193.3174717,30
1774420193.3409805,30
1774420193.3572538,29
1774420193.3694198,29
1774420193.3856652,28
1774420193.4015114,29
1774420193.4193199,30
1774420193.4353113,33
1774420193.4562263,38
1774420193.4670434,43
1774420193.4851074,50
1774420193.5092258,56
1774420193.5176604,61
1774420193.5335715,63
1774420193.5536022,63
1774420193.5722482,62
1774420193.5882878,60
1774420193.6044965,58
1774420193.618908,55
1774420193.6337252,53
1774420193.6535826,50
1774420193.6697502,48
1774420193.6835637,46
1774420193.7016833,44
1774420193.7184153,42
1774420193.7366853,42
1774420193.7512987,41
1774420193.7696755,41
1774420193.7895749,41
1774420193.80072,40
1774420193.8175683,40
1774420193.833712,40
1774420193.8561857,39
1774420193.86682,37
1774420193.8891668,36
1774420193.9054286,35
1774420193.9228573,34
1774420193.9375963,33
1774420193.9509397,32
1774420193.9683845,31
1774420193.9853709,31
1774420194.0015035,30
1774420194.0182498,30
1774420194.0412238,29
1774420194.0567217,29
1774420194.0695276,28
1774420194.0838327,28
1774420194.100432,30
1774420194.1207497,32
1774420194.1341832,37
1774420194.158837,42
1774420194.1687279,49
1774420194.1848347,55
1774420194.2015498,60
1774420194.2241387,62
1774420194.2337263,63
1774420194.2560542,62
1774420194.2723525,60
1774420194.2839801,58
1774420194.3043044,55
1774420194.3194566,53
1774420194.336171,50
1774420194.3503697,48
1774420194.3674858,46
1774420194.3892944,44
1774420194.402727,42
1774420194.424703,41
1774420194.4382696,41
1774420194.4532416,40
1774420194.4699724,40
1774420194.4874463,40
1774420194.5015075,40
1774420194.5214055,39
1774420194.5359054,38
1774420194.5504806,36
1774420194.5687068,35
1774420194.5847528,34
1774420194.6017437,33
1774420194.620864,32
1774420194.6339872,31
1774420194.6528764,30
1774420194.6666574,30
1774420194.685303,29
1774420194.701079,29
1774420194.7217257,28
1774420194.733638,28
1774420194.7538023,27
1774420194.7679458,27
1774420194.7918713,27
1774420194.8084745,29
1774420194.8223386,32
1774420194.8407187,37
1774420194.8521717,42
1774420194.872725,49
1774420194.8890576,55
1774420194.9060082,60
1774420194.9174669,62
1774420194.9367201,63
1774420194.9565198,62
1774420194.9687407,60
1774420194.990034,57
1774420195.0008614,55
1774420195.0167499,52
1774420195.0355337,50
1774420195.0513866,47
1774420195.0666158,45
1774420195.083642,43
1774420195.1018476,42
1774420195.1177464,41
1774420195.133947,41
1774420195.1554153,40
1774420195.1748633,40
1774420195.1866894,40
1774420195.2044003,40
1774420195.2183263,40
1774420195.2379181,38
1774420195.2506733,37
1774420195.2683394,36
1774420195.2878907,35
1774420195.307006,34
1774420195.3209686,33
1774420195.337467,32
1774420195.3549619,31
1774420195.369614,30
1774420195.3849514,30
1774420195.4007301,30
1774420195.4194677,29
1774420195.443825,29
1774420195.4501798,28
1774420195.4723482,28
1774420195.484,28
1774420195.5103605,30
1774420195.5198336,34
1774420195.534078,40
1774420195.5583181,45
1774420195.5767224,51
1774420195.5871022,57
1774420195.6078923,60
1774420195.6247065,62
1774420195.6399996,62
1774420195.6567616,60
1774420195.667588,58
1774420195.6842456,56
1774420195.7054331,53
1774420195.718259,51
1774420195.7358675,48
1774420195.7534382,46
1774420195.7695878,44
1774420195.7856956,43
1774420195.800735,41
1774420195.8176963,41
1774420195.8436778,41
1774420195.8501122,40
1774420195.8765154,40
1774420195.8900132,40
1774420195.9124322,40
1774420195.9235954,39
1774420195.9427383,38
1774420195.9521885,36
1774420195.967595,35
1774420195.9894602,34
1774420196.004471,33
1774420196.0214722,32
1774420196.0402243,31
1774420196.0501664,31
1774420196.0727391,30
1774420196.0851085,30
1774420196.100758,30
1774420196.1192393,29
1774420196.1369314,29
1774420196.1547258,29
1774420196.1688542,28
1774420196.1853511,28
1774420196.2007236,29
1774420196.2167485,32
1774420196.2382286,37
1774420196.249884,42
1774420196.276152,48
1774420196.2937496,55
1774420196.308852,60
1774420196.324943,63
1774420196.3437307,64
1774420196.3542237,63
1774420196.3729334,61
1774420196.3841252,59
1774420196.3998804,57
1774420196.4236221,55
1774420196.4396486,52
1774420196.4541302,50
1774420196.4706216,48
1774420196.4832644,46
1774420196.5056667,44
1774420196.518796,43
1774420196.536785,42
1774420196.5509562,42
1774420196.5669057,41
1774420196.5847292,41
1774420196.6007333,40
1774420196.616719,40
1774420196.6382897,39
1774420196.6501,38
1774420196.6755984,37
1774420196.6936574,36
1774420196.7099025,34
1774420196.7183652,33
1774420196.7417653,32
1774420196.7512803,32
1774420196.7665849,31
1774420196.7897074,31
1774420196.8058443,30
1774420196.8190465,30
1774420196.8358169,29
1774420196.854084,29
1774420196.869904,29
1774420196.8850203,28
1774420196.9012659,28
1774420196.9198368,28
1774420196.9366906,30
1774420196.9527018,33
1774420196.968724,38
1774420196.9847138,43
1774420197.001871,50
1774420197.0174794,56
1774420197.0436375,60
1774420197.0498314,63
1774420197.0752115,63
1774420197.0850418,62
1774420197.1028647,60
1774420197.1228275,58
1774420197.1342237,56
1774420197.1498518,53
1774420197.1766827,51
1774420197.1870267,49
1774420197.2074392,47
1774420197.2203672,45
1774420197.236255,43
1774420197.2523448,42
1774420197.2727563,41
1774420197.287824,41
1774420197.3003454,41
1774420197.3195975,40
1774420197.333647,40
1774420197.3547363,40
1774420197.3711417,38
1774420197.3856382,37
1774420197.4070225,36
1774420197.4167283,35
1774420197.4437604,34
1774420197.449978,33
1774420197.469978,32
1774420197.4831588,31
1774420197.4998765,31
1774420197.5164692,30
1774420197.5342236,29
1774420197.555417,29
1774420197.5671477,29
1774420197.5832162,29
1774420197.6035204,28
1774420197.6183321,28
1774420197.6367812,28
1774420197.6507866,27
1774420197.6665106,27
1774420197.6911867,28
1774420197.707463,30
1774420197.7244847,34
1774420197.7412293,40
1774420197.7538352,46
1774420197.7678545,52
1774420197.7840757,58
1774420197.8017955,62
1774420197.817874,63
1774420197.8349867,63
1774420197.850602,61
1774420197.871056,59
1774420197.8831322,57
1774420197.9008482,54
1774420197.9184806,52
1774420197.9360917,50
1774420197.9502301,47
1774420197.9665487,45
1774420197.9841795,44
1774420198.0011756,42
1774420198.0184946,41
1774420198.0345666,41
1774420198.0503964,41
1774420198.071279,40
1774420198.0834363,40
1774420198.100271,40
1774420198.11739,39
1774420198.1345365,38
1774420198.1500635,37
1774420198.1671216,35
1774420198.184487,34
1774420198.2011745,33
1774420198.2176824,32
1774420198.2377794,31
1774420198.2498515,30
1774420198.270914,30
1774420198.2831004,29
1774420198.3035157,29
1774420198.3165705,29
1774420198.337897,29
1774420198.3514237,28
1774420198.3730433,28
1774420198.3837173,28
1774420198.4086852,28
1774420198.4269962,27
1774420198.4395866,27
1774420198.4551034,28
1774420198.4727771,31
1774420198.4837625,36
1774420198.5047324,41
1774420198.5181732,47
1774420198.5336676,54
1774420198.5527053,59
1774420198.568726,62
1774420198.5856206,63
1774420198.6057827,62
1774420198.6181169,61
1774420198.6376472,58
1774420198.6500113,56
1774420198.6696692,54
1774420198.6830747,51
1774420198.7019424,49
1774420198.7177498,46
1774420198.7369576,44
1774420198.7499304,43
1774420198.773069,42
1774420198.7837493,41
1774420198.8102744,40
1774420198.8184118,40
1774420198.8406835,40
1774420198.8519337,40
1774420198.8726838,40
1774420198.8885193,38
1774420198.9047136,37
1774420198.91669,36
1774420198.936718,35
1774420198.9527144,34
1774420198.9737923,32
1774420198.9847133,32
1774420199.0006804,31
1774420199.0185688,30
1774420199.037215,30
1774420199.049825,29
1774420199.069254,29
1774420199.083182,29
1774420199.101196,28
1774420199.1173613,28
1774420199.1342447,28
1774420199.152278,28
1774420199.1750555,27
1774420199.1922011,27
1774420199.208063,29
1774420199.219239,31
1774420199.2404177,36
1774420199.2566812,41
1774420199.2719555,47
1774420199.291281,53
1774420199.304777,58
1774420199.319493,61
1774420199.3391883,62
1774420199.3502133,61
1774420199.3702867,60
1774420199.3834488,58
1774420199.4020054,55
1774420199.4167106,53
1774420199.4391925,51
1774420199.4497442,48
1774420199.468565,46
1774420199.4830809,44
1774420199.5080204,42
1774420199.5222158,41
1774420199.5414548,40
1774420199.5552204,40
1774420199.5680623,40
1774420199.5830896,40
1774420199.6014214,40
1774420199.6173055,39
1774420199.6399977,38
1774420199.656517,37
1774420199.6724489,36
1774420199.6883297,35
1774420199.7044556,33
1774420199.7206755,32
1774420199.7364218,31
1774420199.7501194,31
1774420199.7725134,30
1774420199.7836463,29
1774420199.8007083,29
1774420199.8269048,29
1774420199.8369887,28
1774420199.8498387,28
1774420199.868243,28
1774420199.8878436,28
1774420199.9017024,28
1774420199.922609,27
1774420199.9404252,27
1774420199.957027,27
1774420199.96699,29
1774420199.9861484,32
1774420200.0018537,37
1774420200.0222461,42
1774420200.0389283,49
1774420200.0539203,55
1774420200.072695,59
1774420200.0867531,61
1774420200.101754,62
1774420200.1182175,61
1774420200.1361072,59
1774420200.14995,57
1774420200.166922,55
1774420200.183058,52
1774420200.2016764,50
1774420200.2167218,48
1774420200.2436676,45
1774420200.2497282,43
1774420200.2758217,42
1774420200.2831402,41
1774420200.300322,40
1774420200.3165562,40
1774420200.333245,40
1774420200.3590224,40
1774420200.369191,39
1774420200.3929884,39
1774420200.4062903,38
1774420200.4222953,36
1774420200.4372892,35
1774420200.4543004,34
1774420200.4687035,33
1774420200.4844096,32
1774420200.5038888,31
1774420200.5167344,30
1774420200.5385618,30
1774420200.5499413,29
1774420200.5687375,28
1774420200.5857105,28
1774420200.6007726,28
1774420200.6174471,28
1774420200.643691,27
1774420200.6527286,27
1774420200.6699214,27
1774420200.6831088,26
1774420200.7033477,26
1774420200.7164092,26
1774420200.7343976,26
1774420200.7501316,28
1774420200.7687664,32
1774420200.7883477,38
1774420200.8044922,43
1774420200.8181968,50
1774420200.8392906,56
1774420200.8516288,60
1774420200.8676038,62
1774420200.8874693,62
1774420200.900123,60
1774420200.920678,58
1774420200.9430788,56
1774420200.9527407,53
1774420200.9709606,51
1774420200.9848287,48
1774420201.000701,46
1774420201.0167074,44
1774420201.0334592,42
1774420201.0497022,41
1774420201.0689096,40
1774420201.0830674,40
1774420201.1003113,40
1774420201.1184084,40
1774420201.1350644,40
1774420201.1512673,39
1774420201.1690855,38
1774420201.1860647,37
1774420201.2021215,36
1774420201.2182438,35
1774420201.2341123,33
1774420201.2502,32
1774420201.2717457,31
1774420201.2894511,31
1774420201.3046775,30
1774420201.3207,29
1774420201.3332105,29
1774420201.3527076,29
1774420201.3669982,29
1774420201.3847034,29
1774420201.4080222,29
1774420201.4167025,29
1774420201.4335167,29
1774420201.4496865,29
1774420201.472735,29
1774420201.4840822,29
1774420201.5102882,29
1774420201.5211258,32
1774420201.5399108,36
1774420201.5496807,41
1774420201.569083,48
1774420201.5851607,55
1774420201.6000726,61
1774420201.6170962,65
1774420201.6380165,67
1774420201.6528707,67
1774420201.669582,66
1774420201.6866832,64
1774420201.7016873,62
1774420201.7207022,60
1774420201.7396457,57
1774420201.7536154,55
1774420201.777016,53
1774420201.7830591,51
1774420201.809032,49
1774420201.8167205,47
1774420201.8354344,46
1774420201.849758,45
1774420201.8710725,45
1774420201.8894374,44
1774420201.8996499,43
1774420201.921147,43
1774420201.9361212,42
1774420201.9538145,40
1774420201.975313,40
1774420201.9836047,39
1774420201.999804,38
1774420202.0247612,37
1774420202.045651,36
1774420202.0527186,35
1774420202.0727181,34
1774420202.083626,34
1774420202.102559,33
1774420202.12004,33
1774420202.1367085,33
1774420202.152999,32
1774420202.1687155,32
1774420202.1856897,32
1774420202.2006807,32
1774420202.2175941,32
1774420202.2383256,31
1774420202.2496235,31
1774420202.2672923,31
1774420202.2863772,33
1774420202.2995536,36
1774420202.3175664,40
1774420202.334535,45
1774420202.3498342,51
1774420202.3699882,57
1774420202.3890138,60
1774420202.4039059,62
1774420202.4206421,62
1774420202.4406955,61
1774420202.4567022,59
1774420202.472739,56
1774420202.4887576,54
1774420202.5021381,51
1774420202.5217156,49
1774420202.536098,47
1774420202.5498807,45
1774420202.5687196,42
1774420202.584706,41
1774420202.600054,40
1774420202.6176307,39
1774420202.6378553,38
1774420202.6540194,37
1774420202.6662097,36
1774420202.685904,35
1774420202.7018192,34
1774420202.7175703,32
1774420202.73286,31
1774420202.7604098,30
1774420202.7661812,28
1774420202.7926679,27
1774420202.8103476,26
1774420202.8166277,26
1774420202.8331566,25
1774420202.8512063,25
1774420202.8697436,24
1774420202.8869877,24
1774420202.907161,24
1774420202.919422,24
1774420202.936705,24
1774420202.9527583,25
1774420202.9666133,25
1774420202.9874628,25
1774420203.0103493,25
1774420203.0166986,25
1774420203.038525,25
1774420203.0524774,27
1774420203.0664368,30
1774420203.084553,35
1774420203.1006212,40
1774420203.1166205,47
1774420203.1370213,54
1774420203.157823,59
1774420203.1694033,62
1774420203.1845615,63
1774420203.2086973,63
1774420203.2259567,62
1774420203.2421827,61
1774420203.2549407,59
1774420203.2701552,57
1774420203.2838693,55
1774420203.303083,53
1774420203.320689,52
1774420203.340466,50
1774420203.35409,48
1774420203.3687727,47
1774420203.3882678,46
1774420203.407442,46
1774420203.4168952,45
1774420203.435075,44
1774420203.4507775,44
1774420203.4662328,43
1774420203.484307,42
1774420203.500032,40
1774420203.5270326,40
1774420203.543682,39
1774420203.5550866,37
1774420203.5690038,36
1774420203.5877125,35
1774420203.608658,35
1774420203.6248374,34
1774420203.6390083,34
1774420203.6566758,33
1774420203.6697485,33
1774420203.689447,33
1774420203.7046826,33
1774420203.7206798,33
1774420203.739218,32
1774420203.752002,32
1774420203.7687798,32
1774420203.7847326,32
1774420203.8007169,32
1774420203.8167129,35
1774420203.8335397,39
1774420203.8513625,43
1774420203.866244,49
1774420203.883971,55
1774420203.8994677,60
1774420203.9269817,63
1774420203.9332798,63
1774420203.9567401,63
1774420203.9699419,61
1774420203.9855688,58
1774420204.0000598,56
1774420204.0172338,53
1774420204.0358124,51
1774420204.057545,48
1774420204.068618,46
1774420204.0896714,44
1774420204.0998013,42
1774420204.1179745,41
1774420204.1385758,40
1774420204.1522796,40
1774420204.1687255,40
1774420204.1872666,40
1774420204.2021291,39
1774420204.218496,38
1774420204.2346747,37
1774420204.2496903,36
1774420204.2661042,34
1774420204.2936285,33
1774420204.3038552,31
1774420204.327043,30
1774420204.3381636,29
1774420204.3586538,28
1774420204.3669357,27
1774420204.3872087,27
1774420204.4087784,26
1774420204.4204938,26
1774420204.4398856,25
1774420204.4567523,25
1774420204.4726706,25
1774420204.4879587,24
1774420204.502337,24
1774420204.5215414,23
1774420204.5370164,22
1774420204.552705,23
1774420204.5687506,25
1774420204.5836048,29
1774420204.600333,34
1774420204.6166975,40
1774420204.6350377,46
1774420204.650069,51
1774420204.670875,55
1774420204.685975,57
1774420204.7102046,57
1774420204.726155,56
1774420204.7381241,54
1774420204.7499216,52
1774420204.7672997,51
1774420204.7902248,49
1774420204.8055878,48
1774420204.8165998,47
1774420204.8424697,45
1774420204.8551779,45
1774420204.8700285,44
1774420204.8922663,44
1774420204.9011214,44
1774420204.9171844,44
1774420204.9333522,44
1774420204.9545193,43
1774420204.968129,43
1774420204.9846976,42
1774420205.0044756,40
1774420205.0191875,40
1774420205.0328596,39
1774420205.0538914,37
1774420205.0661314,36
1774420205.0862575,35
1774420205.100064,34
1774420205.12407,33
1774420205.1334481,32
1774420205.156208,31
1774420205.172394,30
1774420205.1865556,30
1774420205.2015839,29
1774420205.2193058,29
1774420205.235438,28
1774420205.252068,28
1774420205.2677913,27
1774420205.2835233,27
1774420205.3051083,27
1774420205.320701,29
1774420205.336679,33
1774420205.3517694,38
1774420205.3686814,43
1774420205.387609,50
1774420205.4014363,56
1774420205.4256864,60
1774420205.4336147,62
1774420205.4590185,62
1774420205.4660387,61
1774420205.4858541,59
1774420205.4993696,57
1774420205.5211458,54
1774420205.532914,52
1774420205.5595894,50
1774420205.5692916,48
1774420205.5869954,45
1774420205.6040852,44
1774420205.6190393,42
1774420205.6349967,41
1774420205.6529412,41
1774420205.6718502,40
1774420205.6849973,40
1774420205.7075722,40
1774420205.7181153,40
1774420205.737428,39
1774420205.7526674,39
1774420205.7687213,38
1774420205.793636,37
1774420205.8001852,36
1774420205.817164,35
1774420205.8332107,34
1774420205.8590755,33
1774420205.867027,32
1774420205.8903081,32
1774420205.89935,31
1774420205.9160402,31
1774420205.9377296,30
1774420205.9533067,30
1774420205.9660852,30
1774420205.9852278,29
1774420206.0013962,29
1774420206.0168402,29
1774420206.0330513,29
1774420206.0557835,30
1774420206.066341,33
1774420206.0830545,37
1774420206.0997362,42
1774420206.1174085,48
1774420206.1365554,54
1774420206.1508942,59
1774420206.1674507,62
1774420206.1846614,63
1774420206.2007415,62
1774420206.2240453,60
1774420206.2342854,58
1774420206.249748,56
1774420206.2659738,54
1774420206.284258,52
1774420206.299443,50
1774420206.3176792,47
1774420206.3351457,45
1774420206.3517835,44
1774420206.3677804,42
1774420206.3829818,42
1774420206.403563,41
1774420206.4168773,41
1774420206.4361637,40
1774420206.4547083,40
1774420206.4682238,40
1774420206.4828463,39
1774420206.5061264,37
1774420206.5227392,36
1774420206.5366566,35
1774420206.55269,33
1774420206.56873,32
1774420206.5847886,31
1774420206.6008458,30
1774420206.6163392,30
1774420206.6326761,29
1774420206.6542747,29
1774420206.6661556,28
1774420206.6863058,28
1774420206.7023325,28
1774420206.7182603,28
1774420206.734276,27
1774420206.7505577,27
1774420206.7777371,27
1774420206.792662,27
1774420206.79974,28
1774420206.8199735,30
1774420206.8348403,34
1774420206.8602855,39
1774420206.8672993,44
1774420206.882998,51
1774420206.9025276,56
1774420206.9206448,59
1774420206.9372137,61
1774420206.9510589,60
1774420206.972545,59
1774420206.985078,57
1774420207.0022466,55
1774420207.0166996,53
1774420207.0327222,51
1774420207.053274,48
1774420207.0683587,46
1774420207.0846467,44
1774420207.09985,43
1774420207.1172974,41
1774420207.1330159,41
1774420207.1495144,40
1774420207.1687105,40
1774420207.184366,40
1774420207.2044518,40
1774420207.2173026,39
1774420207.2326753,38
1774420207.2567496,37
1774420207.2727556,36
1774420207.2852511,35
1774420207.3026295,34
1774420207.3194096,33
